PE IR       SPECTRUM    SPECTRUM    ASCII       PEDS        1.60        
  -1
10LEN5.ASC
14/01/10
13:09:41.00
14/01/10
13:09:41.00
Admin

400.000000
8









2002,4.07    
MIRTGS : RIGHTBACK : INTERNAL 2
MIR : ON : INTERNAL 2
OPTKBR

0.200000
1
4.000000
STRONG
RATIO
SPECTRUM
UNLOCKED 256

DOUBLE
8
FORWARD
1
0
0


1.000000
RATIO


1
0
TRUE
41620
0
LEFT NOT FITTED RIGHT NOT FITTED 0
NONE
NONE
15600
21.200000
8.970000
41618
TRUE
1 0 8 72 0 0 0 0 

15798.013000






#HDR
-1
-1
#GR
CM-1
%T
0.00002384185791015625
0.0
4000.000000
-1.000000
3601
8
116.421318
4.435873
#DATA
4000.000000	115.327048 
3999.000000	115.335416 
3998.000000	115.345478 
3997.000000	115.350294 
3996.000000	115.347433 
3995.000000	115.345311 
3994.000000	115.353536 
3993.000000	115.370249 
3992.000000	115.386962 
3991.000000	115.399360 
3990.000000	115.406584 
3989.000000	115.408587 
3988.000000	115.410637 
3987.000000	115.422248 
3986.000000	115.444207 
3985.000000	115.465474 
3984.000000	115.477132 
3983.000000	115.480613 
3982.000000	115.479326 
3981.000000	115.474152 
3980.000000	115.469861 
3979.000000	115.474629 
3978.000000	115.488386 
3977.000000	115.501117 
3976.000000	115.504813 
3975.000000	115.498685 
3974.000000	115.484595 
3973.000000	115.466451 
3972.000000	115.453195 
3971.000000	115.450644 
3970.000000	115.453982 
3969.000000	115.454888 
3968.000000	115.453481 
3967.000000	115.454411 
3966.000000	115.457248 
3965.000000	115.457773 
3964.000000	115.455150 
3963.000000	115.450358 
3962.000000	115.443134 
3961.000000	115.435791 
3960.000000	115.433835 
3959.000000	115.438437 
3958.000000	115.444231 
3957.000000	115.448045 
3956.000000	115.452623 
3955.000000	115.459823 
3954.000000	115.467858 
3953.000000	115.476083 
3952.000000	115.485572 
3951.000000	115.493178 
3950.000000	115.491437 
3949.000000	115.477848 
3948.000000	115.461444 
3947.000000	115.456199 
3946.000000	115.466666 
3945.000000	115.482187 
3944.000000	115.487742 
3943.000000	115.480232 
3942.000000	115.470886 
3941.000000	115.472793 
3940.000000	115.489435 
3939.000000	115.515899 
3938.000000	115.548062 
3937.000000	115.585970 
3936.000000	115.628433 
3935.000000	115.668106 
3934.000000	115.693855 
3933.000000	115.701031 
3932.000000	115.696883 
3931.000000	115.695071 
3930.000000	115.703630 
3929.000000	115.721869 
3928.000000	115.746784 
3927.000000	115.774297 
3926.000000	115.795755 
3925.000000	115.804743 
3924.000000	115.810084 
3923.000000	115.826487 
3922.000000	115.852808 
3921.000000	115.875291 
3920.000000	115.889382 
3919.000000	115.900731 
3918.000000	115.908789 
3917.000000	115.910434 
3916.000000	115.914249 
3915.000000	115.931677 
3914.000000	115.958666 
3913.000000	115.983510 
3912.000000	116.004538 
3911.000000	116.028380 
3910.000000	116.057252 
3909.000000	116.089415 
3908.000000	116.122770 
3907.000000	116.148424 
3906.000000	116.151142 
3905.000000	116.125178 
3904.000000	116.084241 
3903.000000	116.050839 
3902.000000	116.037249 
3901.000000	116.037654 
3900.000000	116.041111 
3899.000000	116.047286 
3898.000000	116.064500 
3897.000000	116.095542 
3896.000000	116.134548 
3895.000000	116.174817 
3894.000000	116.206693 
3893.000000	116.213703 
3892.000000	116.188454 
3891.000000	116.152930 
3890.000000	116.144967 
3889.000000	116.178965 
3888.000000	116.229248 
3887.000000	116.256618 
3886.000000	116.246604 
3885.000000	116.219377 
3884.000000	116.205167 
3883.000000	116.209983 
3882.000000	116.210603 
3881.000000	116.186094 
3880.000000	116.147661 
3879.000000	116.130614 
3878.000000	116.157531 
3877.000000	116.211247 
3876.000000	116.250848 
3875.000000	116.254639 
3874.000000	116.240906 
3873.000000	116.237854 
3872.000000	116.242432 
3871.000000	116.229653 
3870.000000	116.198539 
3869.000000	116.181659 
3868.000000	116.203856 
3867.000000	116.248774 
3866.000000	116.277241 
3865.000000	116.271495 
3864.000000	116.251969 
3863.000000	116.246509 
3862.000000	116.257262 
3861.000000	116.272068 
3860.000000	116.293644 
3859.000000	116.330432 
3858.000000	116.372179 
3857.000000	116.404223 
3856.000000	116.421318 
3855.000000	116.401982 
3854.000000	116.316652 
3853.000000	116.195535 
3852.000000	116.128683 
3851.000000	116.158032 
3850.000000	116.227459 
3849.000000	116.274952 
3848.000000	116.306996 
3847.000000	116.350340 
3846.000000	116.391992 
3845.000000	116.404628 
3844.000000	116.390109 
3843.000000	116.370248 
3842.000000	116.357088 
3841.000000	116.346096 
3840.000000	116.328954 
3839.000000	116.305947 
3838.000000	116.284823 
3837.000000	116.270446 
3836.000000	116.262006 
3835.000000	116.258263 
3834.000000	116.257452 
3833.000000	116.253447 
3832.000000	116.245150 
3831.000000	116.242551 
3830.000000	116.255211 
3829.000000	116.274809 
3828.000000	116.282844 
3827.000000	116.274309 
3826.000000	116.266059 
3825.000000	116.278600 
3824.000000	116.310358 
3823.000000	116.334629 
3822.000000	116.323685 
3821.000000	116.283631 
3820.000000	116.257596 
3819.000000	116.274714 
3818.000000	116.303467 
3817.000000	116.289091 
3816.000000	116.231298 
3815.000000	116.184663 
3814.000000	116.185593 
3813.000000	116.216349 
3812.000000	116.247487 
3811.000000	116.274881 
3810.000000	116.302490 
3809.000000	116.316008 
3808.000000	116.296362 
3807.000000	116.251754 
3806.000000	116.220402 
3805.000000	116.231679 
3804.000000	116.268801 
3803.000000	116.279149 
3802.000000	116.232919 
3801.000000	116.165256 
3800.000000	116.139984 
3799.000000	116.171216 
3798.000000	116.209340 
3797.000000	116.213703 
3796.000000	116.201806 
3795.000000	116.206097 
3794.000000	116.225051 
3793.000000	116.242718 
3792.000000	116.258239 
3791.000000	116.274309 
3790.000000	116.283702 
3789.000000	116.284227 
3788.000000	116.284322 
3787.000000	116.286683 
3786.000000	116.283726 
3785.000000	116.273975 
3784.000000	116.270375 
3783.000000	116.286873 
3782.000000	116.318774 
3781.000000	116.341733 
3780.000000	116.336607 
3779.000000	116.310119 
3778.000000	116.285848 
3777.000000	116.278862 
3776.000000	116.286110 
3775.000000	116.299057 
3774.000000	116.316914 
3773.000000	116.339349 
3772.000000	116.354656 
3771.000000	116.346430 
3770.000000	116.316509 
3769.000000	116.288423 
3768.000000	116.280531 
3767.000000	116.285705 
3766.000000	116.285061 
3765.000000	116.276431 
3764.000000	116.279864 
3763.000000	116.307544 
3762.000000	116.340637 
3761.000000	116.347002 
3760.000000	116.319417 
3759.000000	116.282153 
3758.000000	116.260051 
3757.000000	116.259622 
3756.000000	116.278696 
3755.000000	116.309571 
3754.000000	116.329455 
3753.000000	116.310763 
3752.000000	116.248559 
3751.000000	116.166973 
3750.000000	116.102623 
3749.000000	116.090059 
3748.000000	116.135311 
3747.000000	116.189694 
3746.000000	116.183519 
3745.000000	116.112565 
3744.000000	116.050148 
3743.000000	116.053104 
3742.000000	116.098570 
3741.000000	116.138219 
3740.000000	116.165637 
3739.000000	116.195631 
3738.000000	116.213822 
3737.000000	116.184115 
3736.000000	116.097688 
3735.000000	115.992879 
3734.000000	115.917801 
3733.000000	115.882825 
3732.000000	115.866637 
3731.000000	115.858650 
3730.000000	115.865635 
3729.000000	115.879845 
3728.000000	115.879130 
3727.000000	115.860128 
3726.000000	115.843033 
3725.000000	115.840363 
3724.000000	115.849804 
3723.000000	115.869331 
3722.000000	115.899610 
3721.000000	115.936231 
3720.000000	115.975570 
3719.000000	116.020631 
3718.000000	116.069650 
3717.000000	116.115450 
3716.000000	116.158699 
3715.000000	116.200423 
3714.000000	116.214346 
3713.000000	116.160917 
3712.000000	116.043305 
3711.000000	115.919518 
3710.000000	115.843796 
3709.000000	115.821957 
3708.000000	115.831637 
3707.000000	115.854430 
3706.000000	115.877604 
3705.000000	115.890455 
3704.000000	115.890192 
3703.000000	115.876960 
3702.000000	115.845680 
3701.000000	115.800237 
3700.000000	115.764069 
3699.000000	115.754795 
3698.000000	115.758490 
3697.000000	115.752696 
3696.000000	115.739202 
3695.000000	115.728831 
3694.000000	115.716886 
3693.000000	115.697932 
3692.000000	115.683722 
3691.000000	115.679645 
3690.000000	115.665698 
3689.000000	115.626931 
3688.000000	115.578460 
3687.000000	115.544319 
3686.000000	115.529298 
3685.000000	115.522980 
3684.000000	115.518522 
3683.000000	115.517377 
3682.000000	115.518450 
3681.000000	115.513014 
3680.000000	115.498089 
3679.000000	115.485811 
3678.000000	115.477800 
3677.000000	115.446043 
3676.000000	115.372586 
3675.000000	115.296936 
3674.000000	115.278863 
3673.000000	115.318632 
3672.000000	115.353083 
3671.000000	115.333127 
3670.000000	115.273499 
3669.000000	115.224480 
3668.000000	115.216636 
3667.000000	115.240263 
3666.000000	115.265607 
3665.000000	115.275883 
3664.000000	115.278315 
3663.000000	115.286469 
3662.000000	115.302371 
3661.000000	115.318775 
3660.000000	115.332579 
3659.000000	115.341401 
3658.000000	115.328454 
3657.000000	115.278315 
3656.000000	115.212583 
3655.000000	115.179228 
3654.000000	115.199017 
3653.000000	115.249776 
3652.000000	115.303182 
3651.000000	115.336561 
3650.000000	115.317225 
3649.000000	115.231108 
3648.000000	115.124464 
3647.000000	115.066385 
3646.000000	115.071082 
3645.000000	115.098810 
3644.000000	115.119481 
3643.000000	115.135049 
3642.000000	115.149402 
3641.000000	115.157365 
3640.000000	115.159630 
3639.000000	115.159010 
3638.000000	115.152382 
3637.000000	115.140080 
3636.000000	115.130567 
3635.000000	115.123915 
3634.000000	115.112948 
3633.000000	115.108156 
3632.000000	115.124034 
3631.000000	115.133833 
3630.000000	115.092539 
3629.000000	115.012359 
3628.000000	114.964461 
3627.000000	114.989447 
3626.000000	115.055084 
3625.000000	115.116405 
3624.000000	115.170907 
3623.000000	115.236401 
3622.000000	115.305685 
3621.000000	115.346527 
3620.000000	115.339827 
3619.000000	115.307593 
3618.000000	115.294837 
3617.000000	115.325045 
3616.000000	115.381288 
3615.000000	115.431070 
3614.000000	115.458059 
3613.000000	115.469098 
3612.000000	115.480446 
3611.000000	115.498399 
3610.000000	115.509176 
3609.000000	115.494966 
3608.000000	115.466117 
3607.000000	115.456986 
3606.000000	115.486288 
3605.000000	115.535497 
3604.000000	115.576338 
3603.000000	115.599179 
3602.000000	115.609073 
3601.000000	115.613055 
3600.000000	115.621352 
3599.000000	115.639472 
3598.000000	115.654206 
3597.000000	115.645432 
3596.000000	115.615415 
3595.000000	115.587520 
3594.000000	115.578484 
3593.000000	115.591645 
3592.000000	115.626788 
3591.000000	115.673255 
3590.000000	115.702748 
3589.000000	115.696644 
3588.000000	115.671586 
3587.000000	115.659308 
3586.000000	115.669107 
3585.000000	115.687894 
3584.000000	115.704178 
3583.000000	115.713238 
3582.000000	115.709114 
3581.000000	115.688920 
3580.000000	115.658259 
3579.000000	115.626263 
3578.000000	115.598177 
3577.000000	115.574550 
3576.000000	115.553951 
3575.000000	115.535283 
3574.000000	115.519094 
3573.000000	115.508866 
3572.000000	115.509867 
3571.000000	115.523695 
3570.000000	115.536284 
3569.000000	115.518260 
3568.000000	115.455603 
3567.000000	115.376043 
3566.000000	115.325951 
3565.000000	115.323424 
3564.000000	115.350818 
3563.000000	115.384960 
3562.000000	115.411663 
3561.000000	115.420746 
3560.000000	115.409731 
3559.000000	115.390968 
3558.000000	115.378069 
3557.000000	115.371847 
3556.000000	115.368676 
3555.000000	115.371680 
3554.000000	115.382337 
3553.000000	115.393280 
3552.000000	115.398240 
3551.000000	115.401768 
3550.000000	115.410447 
3549.000000	115.426659 
3548.000000	115.453791 
3547.000000	115.493583 
3546.000000	115.535855 
3545.000000	115.563583 
3544.000000	115.571689 
3543.000000	115.566658 
3542.000000	115.551686 
3541.000000	115.529060 
3540.000000	115.514135 
3539.000000	115.524983 
3538.000000	115.557217 
3537.000000	115.586352 
3536.000000	115.594124 
3535.000000	115.581130 
3534.000000	115.557479 
3533.000000	115.534591 
3532.000000	115.520954 
3531.000000	115.515995 
3530.000000	115.510392 
3529.000000	115.499782 
3528.000000	115.494537 
3527.000000	115.512013 
3526.000000	115.557479 
3525.000000	115.616273 
3524.000000	115.660643 
3523.000000	115.667295 
3522.000000	115.634346 
3521.000000	115.583777 
3520.000000	115.543866 
3519.000000	115.528345 
3518.000000	115.534090 
3517.000000	115.554118 
3516.000000	115.585327 
3515.000000	115.620803 
3514.000000	115.642499 
3513.000000	115.630173 
3512.000000	115.578079 
3511.000000	115.502142 
3510.000000	115.431666 
3509.000000	115.390038 
3508.000000	115.382909 
3507.000000	115.401983 
3506.000000	115.440797 
3505.000000	115.495681 
3504.000000	115.552759 
3503.000000	115.585350 
3502.000000	115.576195 
3501.000000	115.537762 
3500.000000	115.503168 
3499.000000	115.491890 
3498.000000	115.491318 
3497.000000	115.472698 
3496.000000	115.425610 
3495.000000	115.363073 
3494.000000	115.295624 
3493.000000	115.219950 
3492.000000	115.137982 
3491.000000	115.065860 
3490.000000	115.016150 
3489.000000	114.983272 
3488.000000	114.951300 
3487.000000	114.900517 
3486.000000	114.810848 
3485.000000	114.678621 
3484.000000	114.532279 
3483.000000	114.413738 
3482.000000	114.339470 
3481.000000	114.285826 
3480.000000	114.210081 
3479.000000	114.082241 
3478.000000	113.901877 
3477.000000	113.693070 
3476.000000	113.486647 
3475.000000	113.300228 
3474.000000	113.140296 
3473.000000	113.012599 
3472.000000	112.925839 
3471.000000	112.876868 
3470.000000	112.845039 
3469.000000	112.804436 
3468.000000	112.742614 
3467.000000	112.661647 
3466.000000	112.573099 
3465.000000	112.493801 
3464.000000	112.447071 
3463.000000	112.456202 
3462.000000	112.527680 
3461.000000	112.640118 
3460.000000	112.757110 
3459.000000	112.855887 
3458.000000	112.940716 
3457.000000	113.031506 
3456.000000	113.143038 
3455.000000	113.276982 
3454.000000	113.423848 
3453.000000	113.573312 
3452.000000	113.719582 
3451.000000	113.864636 
3450.000000	114.012265 
3449.000000	114.162755 
3448.000000	114.308691 
3447.000000	114.438700 
3446.000000	114.544057 
3445.000000	114.625716 
3444.000000	114.695549 
3443.000000	114.766669 
3442.000000	114.843940 
3441.000000	114.926218 
3440.000000	115.018677 
3439.000000	115.126681 
3438.000000	115.237832 
3437.000000	115.325903 
3436.000000	115.378808 
3435.000000	115.405774 
3434.000000	115.418362 
3433.000000	115.424275 
3432.000000	115.437293 
3431.000000	115.467381 
3430.000000	115.501475 
3429.000000	115.517139 
3428.000000	115.511608 
3427.000000	115.497994 
3426.000000	115.482068 
3425.000000	115.465807 
3424.000000	115.460538 
3423.000000	115.475964 
3422.000000	115.502452 
3421.000000	115.522885 
3420.000000	115.531396 
3419.000000	115.534019 
3418.000000	115.537786 
3417.000000	115.549898 
3416.000000	115.578246 
3415.000000	115.622615 
3414.000000	115.670561 
3413.000000	115.706968 
3412.000000	115.725064 
3411.000000	115.729260 
3410.000000	115.727472 
3409.000000	115.723943 
3408.000000	115.719556 
3407.000000	115.716719 
3406.000000	115.721583 
3405.000000	115.739107 
3404.000000	115.769433 
3403.000000	115.808081 
3402.000000	115.846800 
3401.000000	115.874433 
3400.000000	115.882706 
3399.000000	115.872430 
3398.000000	115.852713 
3397.000000	115.835118 
3396.000000	115.829586 
3395.000000	115.840840 
3394.000000	115.863513 
3393.000000	115.884232 
3392.000000	115.893244 
3391.000000	115.890312 
3390.000000	115.877342 
3389.000000	115.854096 
3388.000000	115.826296 
3387.000000	115.805625 
3386.000000	115.796446 
3385.000000	115.793395 
3384.000000	115.795946 
3383.000000	115.810203 
3382.000000	115.834450 
3381.000000	115.857768 
3380.000000	115.875887 
3379.000000	115.893721 
3378.000000	115.910935 
3377.000000	115.920329 
3376.000000	115.920305 
3375.000000	115.917062 
3374.000000	115.915727 
3373.000000	115.921592 
3372.000000	115.943622 
3371.000000	115.983414 
3370.000000	116.025948 
3369.000000	116.053462 
3368.000000	116.061854 
3367.000000	116.055059 
3366.000000	116.035032 
3365.000000	116.006731 
3364.000000	115.984010 
3363.000000	115.977978 
3362.000000	115.984249 
3361.000000	115.989446 
3360.000000	115.984296 
3359.000000	115.967702 
3358.000000	115.945219 
3357.000000	115.926599 
3356.000000	115.919876 
3355.000000	115.926146 
3354.000000	115.942049 
3353.000000	115.965700 
3352.000000	115.995335 
3351.000000	116.022467 
3350.000000	116.033625 
3349.000000	116.021776 
3348.000000	115.995335 
3347.000000	115.973138 
3346.000000	115.968084 
3345.000000	115.976762 
3344.000000	115.986394 
3343.000000	115.989494 
3342.000000	115.988826 
3341.000000	115.990829 
3340.000000	115.998864 
3339.000000	116.010022 
3338.000000	116.014289 
3337.000000	116.000485 
3336.000000	115.969085 
3335.000000	115.932726 
3334.000000	115.902090 
3333.000000	115.877652 
3332.000000	115.859198 
3331.000000	115.850424 
3330.000000	115.851187 
3329.000000	115.857243 
3328.000000	115.869879 
3327.000000	115.891408 
3326.000000	115.910863 
3325.000000	115.910506 
3324.000000	115.887498 
3323.000000	115.855097 
3322.000000	115.822839 
3321.000000	115.791773 
3320.000000	115.765476 
3319.000000	115.748763 
3318.000000	115.738129 
3317.000000	115.728068 
3316.000000	115.720462 
3315.000000	115.716886 
3314.000000	115.710115 
3313.000000	115.698313 
3312.000000	115.693712 
3311.000000	115.706038 
3310.000000	115.726375 
3309.000000	115.740013 
3308.000000	115.742945 
3307.000000	115.737462 
3306.000000	115.721964 
3305.000000	115.693688 
3304.000000	115.654468 
3303.000000	115.609073 
3302.000000	115.561461 
3301.000000	115.515685 
3300.000000	115.477728 
3299.000000	115.452742 
3298.000000	115.440654 
3297.000000	115.434646 
3296.000000	115.427041 
3295.000000	115.415453 
3294.000000	115.401148 
3293.000000	115.382337 
3292.000000	115.354442 
3291.000000	115.317368 
3290.000000	115.276503 
3289.000000	115.239334 
3288.000000	115.213036 
3287.000000	115.203332 
3286.000000	115.208029 
3285.000000	115.218043 
3284.000000	115.227794 
3283.000000	115.240597 
3282.000000	115.258312 
3281.000000	115.276336 
3280.000000	115.293216 
3279.000000	115.316033 
3278.000000	115.348553 
3277.000000	115.384840 
3276.000000	115.419554 
3275.000000	115.453577 
3274.000000	115.486550 
3273.000000	115.515208 
3272.000000	115.540385 
3271.000000	115.563964 
3270.000000	115.578818 
3269.000000	115.577173 
3268.000000	115.565848 
3267.000000	115.559577 
3266.000000	115.560770 
3265.000000	115.561485 
3264.000000	115.559625 
3263.000000	115.560054 
3262.000000	115.562343 
3261.000000	115.562963 
3260.000000	115.563917 
3259.000000	115.570616 
3258.000000	115.582489 
3257.000000	115.595149 
3256.000000	115.604853 
3255.000000	115.607523 
3254.000000	115.599846 
3253.000000	115.586686 
3252.000000	115.578365 
3251.000000	115.578317 
3250.000000	115.581202 
3249.000000	115.584206 
3248.000000	115.589404 
3247.000000	115.593099 
3246.000000	115.584850 
3245.000000	115.561294 
3244.000000	115.531468 
3243.000000	115.505671 
3242.000000	115.486192 
3241.000000	115.470314 
3240.000000	115.457820 
3239.000000	115.451383 
3238.000000	115.452313 
3237.000000	115.456867 
3236.000000	115.460419 
3235.000000	115.461468 
3234.000000	115.457367 
3233.000000	115.441226 
3232.000000	115.410995 
3231.000000	115.375518 
3230.000000	115.344882 
3229.000000	115.319991 
3228.000000	115.299010 
3227.000000	115.283083 
3226.000000	115.269279 
3225.000000	115.249323 
3224.000000	115.223312 
3223.000000	115.202021 
3222.000000	115.189695 
3221.000000	115.178012 
3220.000000	115.160274 
3219.000000	115.138983 
3218.000000	115.116381 
3217.000000	115.091896 
3216.000000	115.069842 
3215.000000	115.054345 
3214.000000	115.037584 
3213.000000	115.009140 
3212.000000	114.973330 
3211.000000	114.942717 
3210.000000	114.918351 
3209.000000	114.894104 
3208.000000	114.870834 
3207.000000	114.851117 
3206.000000	114.828515 
3205.000000	114.797592 
3204.000000	114.765429 
3203.000000	114.739179 
3202.000000	114.713573 
3201.000000	114.681220 
3200.000000	114.645957 
3199.000000	114.615321 
3198.000000	114.588689 
3197.000000	114.560604 
3196.000000	114.529204 
3195.000000	114.497113 
3194.000000	114.466571 
3193.000000	114.437246 
3192.000000	114.408087 
3191.000000	114.378643 
3190.000000	114.349198 
3189.000000	114.318203 
3188.000000	114.283680 
3187.000000	114.246559 
3186.000000	114.210367 
3185.000000	114.177370 
3184.000000	114.146566 
3183.000000	114.116811 
3182.000000	114.087367 
3181.000000	114.057803 
3180.000000	114.029359 
3179.000000	114.004707 
3178.000000	113.982367 
3177.000000	113.957810 
3176.000000	113.932704 
3175.000000	113.916826 
3174.000000	113.912343 
3173.000000	113.908433 
3172.000000	113.896775 
3171.000000	113.882923 
3170.000000	113.873672 
3169.000000	113.868284 
3168.000000	113.866901 
3167.000000	113.872909 
3166.000000	113.881349 
3165.000000	113.881301 
3164.000000	113.873362 
3163.000000	113.868069 
3162.000000	113.866782 
3161.000000	113.861489 
3160.000000	113.852381 
3159.000000	113.847470 
3158.000000	113.846921 
3157.000000	113.844513 
3156.000000	113.841819 
3155.000000	113.844561 
3154.000000	113.849592 
3153.000000	113.848257 
3152.000000	113.838458 
3151.000000	113.823080 
3150.000000	113.802170 
3149.000000	113.776588 
3148.000000	113.751864 
3147.000000	113.731670 
3146.000000	113.712596 
3145.000000	113.691520 
3144.000000	113.671827 
3143.000000	113.658428 
3142.000000	113.651776 
3141.000000	113.649010 
3140.000000	113.645505 
3139.000000	113.634181 
3138.000000	113.609290 
3137.000000	113.572883 
3136.000000	113.534045 
3135.000000	113.500785 
3134.000000	113.473582 
3133.000000	113.448047 
3132.000000	113.422298 
3131.000000	113.398432 
3130.000000	113.374948 
3129.000000	113.342833 
3128.000000	113.297295 
3127.000000	113.247084 
3126.000000	113.205027 
3125.000000	113.172125 
3124.000000	113.142442 
3123.000000	113.113594 
3122.000000	113.085103 
3121.000000	113.051724 
3120.000000	113.011312 
3119.000000	112.969207 
3118.000000	112.928485 
3117.000000	112.883377 
3116.000000	112.829828 
3115.000000	112.771749 
3114.000000	112.712860 
3113.000000	112.652683 
3112.000000	112.594699 
3111.000000	112.544250 
3110.000000	112.497282 
3109.000000	112.442421 
3108.000000	112.376832 
3107.000000	112.306284 
3106.000000	112.232041 
3105.000000	112.152218 
3104.000000	112.072992 
3103.000000	112.003946 
3102.000000	111.942744 
3101.000000	111.877989 
3100.000000	111.803746 
3099.000000	111.721467 
3098.000000	111.631321 
3097.000000	111.534667 
3096.000000	111.436700 
3095.000000	111.343598 
3094.000000	111.254453 
3093.000000	111.167383 
3092.000000	111.080527 
3091.000000	110.991191 
3090.000000	110.891866 
3089.000000	110.779023 
3088.000000	110.655093 
3087.000000	110.525059 
3086.000000	110.388779 
3085.000000	110.244059 
3084.000000	110.087728 
3083.000000	109.917545 
3082.000000	109.731578 
3081.000000	109.528923 
3080.000000	109.309625 
3079.000000	109.073734 
3078.000000	108.818984 
3077.000000	108.541107 
3076.000000	108.237481 
3075.000000	107.911109 
3074.000000	107.566547 
3073.000000	107.207512 
3072.000000	106.840825 
3071.000000	106.480407 
3070.000000	106.137275 
3069.000000	105.812811 
3068.000000	105.506992 
3067.000000	105.226469 
3066.000000	104.978322 
3065.000000	104.763412 
3064.000000	104.585766 
3063.000000	104.452800 
3062.000000	104.361724 
3061.000000	104.294562 
3060.000000	104.237031 
3059.000000	104.185128 
3058.000000	104.132294 
3057.000000	104.062962 
3056.000000	103.966069 
3055.000000	103.840994 
3054.000000	103.686404 
3053.000000	103.498888 
3052.000000	103.277778 
3051.000000	103.025269 
3050.000000	102.733016 
3049.000000	102.396011 
3048.000000	102.015566 
3047.000000	101.603364 
3046.000000	101.150488 
3045.000000	100.652599 
3044.000000	100.100183 
3043.000000	99.503779  
3042.000000	98.850059  
3041.000000	98.137617  
3040.000000	97.345018  
3039.000000	96.477985  
3038.000000	95.518445  
3037.000000	94.464826  
3036.000000	93.289685  
3035.000000	91.992664  
3034.000000	90.553665  
3033.000000	88.957524  
3032.000000	87.167072  
3031.000000	85.174798  
3030.000000	82.980775  
3029.000000	80.582165  
3028.000000	77.942419  
3027.000000	75.024056  
3026.000000	71.804070  
3025.000000	68.291926  
3024.000000	64.509987  
3023.000000	60.503435  
3022.000000	56.316781  
3021.000000	52.027034  
3020.000000	47.726631  
3019.000000	43.563222  
3018.000000	39.661550  
3017.000000	36.151289  
3016.000000	33.113622  
3015.000000	30.653619  
3014.000000	28.813552  
3013.000000	27.627563  
3012.000000	27.078008  
3011.000000	27.182602  
3010.000000	27.913761  
3009.000000	29.239892  
3008.000000	31.084060  
3007.000000	33.397126  
3006.000000	36.104393  
3005.000000	39.123320  
3004.000000	42.322564  
3003.000000	45.566964  
3002.000000	48.721146  
3001.000000	51.685404  
3000.000000	54.384994  
2999.000000	56.780982  
2998.000000	58.858180  
2997.000000	60.628223  
2996.000000	62.103295  
2995.000000	63.311147  
2994.000000	64.274644  
2993.000000	65.038609  
2992.000000	65.617132  
2991.000000	66.039061  
2990.000000	66.291666  
2989.000000	66.387701  
2988.000000	66.292357  
2987.000000	66.009593  
2986.000000	65.507626  
2985.000000	64.787626  
2984.000000	63.811278  
2983.000000	62.579393  
2982.000000	61.083102  
2981.000000	59.338665  
2980.000000	57.347154  
2979.000000	55.141568  
2978.000000	52.766299  
2977.000000	50.273966  
2976.000000	47.708606  
2975.000000	45.131802  
2974.000000	42.614102  
2973.000000	40.208625  
2972.000000	37.939429  
2971.000000	35.822176  
2970.000000	33.870220  
2969.000000	32.090544  
2968.000000	30.491542  
2967.000000	29.104971  
2966.000000	27.963519  
2965.000000	27.087068  
2964.000000	26.472926  
2963.000000	26.127696  
2962.000000	26.028656  
2961.000000	26.124072  
2960.000000	26.316928  
2959.000000	26.521468  
2958.000000	26.648449  
2957.000000	26.635241  
2956.000000	26.435589  
2955.000000	26.056647  
2954.000000	25.541782  
2953.000000	24.966883  
2952.000000	24.405837  
2951.000000	23.912048  
2950.000000	23.497581  
2949.000000	23.136019  
2948.000000	22.775650  
2947.000000	22.360277  
2946.000000	21.846055  
2945.000000	21.205854  
2944.000000	20.428442  
2943.000000	19.521284  
2942.000000	18.514895  
2941.000000	17.443561  
2940.000000	16.334342  
2939.000000	15.212798  
2938.000000	14.127993  
2937.000000	13.125967  
2936.000000	12.238931  
2935.000000	11.483311  
2934.000000	10.889148  
2933.000000	10.461497  
2932.000000	10.181331  
2931.000000	10.019612  
2930.000000	9.982204   
2929.000000	10.060358  
2928.000000	10.232567  
2927.000000	10.474443  
2926.000000	10.801553  
2925.000000	11.216568  
2924.000000	11.711287  
2923.000000	12.278318  
2922.000000	12.935519  
2921.000000	13.683199  
2920.000000	14.505314  
2919.000000	15.392875  
2918.000000	16.351294  
2917.000000	17.370343  
2916.000000	18.424582  
2915.000000	19.503521  
2914.000000	20.607113  
2913.000000	21.726155  
2912.000000	22.841262  
2911.000000	23.953270  
2910.000000	25.070476  
2909.000000	26.194214  
2908.000000	27.314949  
2907.000000	28.435111  
2906.000000	29.558920  
2905.000000	30.685520  
2904.000000	31.809949  
2903.000000	32.933473  
2902.000000	34.058618  
2901.000000	35.181045  
2900.000000	36.297392  
2899.000000	37.406373  
2898.000000	38.511013  
2897.000000	39.607763  
2896.000000	40.693593  
2895.000000	41.764330  
2894.000000	42.819786  
2893.000000	43.855690  
2892.000000	44.862294  
2891.000000	45.826244  
2890.000000	46.736168  
2889.000000	47.581076  
2888.000000	48.341035  
2887.000000	48.995113  
2886.000000	49.523258  
2885.000000	49.909234  
2884.000000	50.120878  
2883.000000	50.133991  
2882.000000	49.928474  
2881.000000	49.505472  
2880.000000	48.857855  
2879.000000	48.021411  
2878.000000	47.058939  
2877.000000	46.082139  
2876.000000	45.180845  
2875.000000	44.449329  
2874.000000	43.925571  
2873.000000	43.601393  
2872.000000	43.385314  
2871.000000	43.172812  
2870.000000	42.857193  
2869.000000	42.351555  
2868.000000	41.582798  
2867.000000	40.522718  
2866.000000	39.181709  
2865.000000	37.588977  
2864.000000	35.779833  
2863.000000	33.818078  
2862.000000	31.784796  
2861.000000	29.769778  
2860.000000	27.857089  
2859.000000	26.155805  
2858.000000	24.769592  
2857.000000	23.795318  
2856.000000	23.295569  
2855.000000	23.336195  
2854.000000	23.943662  
2853.000000	25.120878  
2852.000000	26.813030  
2851.000000	28.967857  
2850.000000	31.497931  
2849.000000	34.326744  
2848.000000	37.343168  
2847.000000	40.460348  
2846.000000	43.575501  
2845.000000	46.628189  
2844.000000	49.570536  
2843.000000	52.403903  
2842.000000	55.133318  
2841.000000	57.775998  
2840.000000	60.331892  
2839.000000	62.797570  
2838.000000	65.155982  
2837.000000	67.393445  
2836.000000	69.499540  
2835.000000	71.480751  
2834.000000	73.350024  
2833.000000	75.128912  
2832.000000	76.827907  
2831.000000	78.459668  
2830.000000	80.023503  
2829.000000	81.526136  
2828.000000	82.958722  
2827.000000	84.323358  
2826.000000	85.612058  
2825.000000	86.833381  
2824.000000	87.984991  
2823.000000	89.079356  
2822.000000	90.118217  
2821.000000	91.115498  
2820.000000	92.072081  
2819.000000	92.995762  
2818.000000	93.883776  
2817.000000	94.740486  
2816.000000	95.564317  
2815.000000	96.359467  
2814.000000	97.125291  
2813.000000	97.862529  
2812.000000	98.569035  
2811.000000	99.245524  
2810.000000	99.890828  
2809.000000	100.501132 
2808.000000	101.073575 
2807.000000	101.610708 
2806.000000	102.117609 
2805.000000	102.591419 
2804.000000	103.030109 
2803.000000	103.437137 
2802.000000	103.822922 
2801.000000	104.186701 
2800.000000	104.525423 
2799.000000	104.834437 
2798.000000	105.113887 
2797.000000	105.358839 
2796.000000	105.575799 
2795.000000	105.778789 
2794.000000	105.983924 
2793.000000	106.191968 
2792.000000	106.402468 
2791.000000	106.614255 
2790.000000	106.823468 
2789.000000	107.018661 
2788.000000	107.198166 
2787.000000	107.370758 
2786.000000	107.543563 
2785.000000	107.715034 
2784.000000	107.885003 
2783.000000	108.055210 
2782.000000	108.219480 
2781.000000	108.366656 
2780.000000	108.495783 
2779.000000	108.616113 
2778.000000	108.732962 
2777.000000	108.845090 
2776.000000	108.950304 
2775.000000	109.046721 
2774.000000	109.127902 
2773.000000	109.191322 
2772.000000	109.244728 
2771.000000	109.301686 
2770.000000	109.368252 
2769.000000	109.444713 
2768.000000	109.529161 
2767.000000	109.620475 
2766.000000	109.714961 
2765.000000	109.809684 
2764.000000	109.902572 
2763.000000	109.992146 
2762.000000	110.075402 
2761.000000	110.150909 
2760.000000	110.218453 
2759.000000	110.278296 
2758.000000	110.329341 
2757.000000	110.370373 
2756.000000	110.401749 
2755.000000	110.426783 
2754.000000	110.450267 
2753.000000	110.475897 
2752.000000	110.505628 
2751.000000	110.539174 
2750.000000	110.572504 
2749.000000	110.597133 
2748.000000	110.608553 
2747.000000	110.610461 
2746.000000	110.609745 
2745.000000	110.607266 
2744.000000	110.604262 
2743.000000	110.606336 
2742.000000	110.616970 
2741.000000	110.630154 
2740.000000	110.641646 
2739.000000	110.653018 
2738.000000	110.661339 
2737.000000	110.654282 
2736.000000	110.626792 
2735.000000	110.588192 
2734.000000	110.546159 
2733.000000	110.496783 
2732.000000	110.436391 
2731.000000	110.370421 
2730.000000	110.305452 
2729.000000	110.244441 
2728.000000	110.191535 
2727.000000	110.148644 
2726.000000	110.108590 
2725.000000	110.065722 
2724.000000	110.030078 
2723.000000	110.016250 
2722.000000	110.022640 
2721.000000	110.037422 
2720.000000	110.058879 
2719.000000	110.093665 
2718.000000	110.141038 
2717.000000	110.191035 
2716.000000	110.236978 
2715.000000	110.276675 
2714.000000	110.309934 
2713.000000	110.338449 
2712.000000	110.367131 
2711.000000	110.396552 
2710.000000	110.420966 
2709.000000	110.435318 
2708.000000	110.441899 
2707.000000	110.448217 
2706.000000	110.460042 
2705.000000	110.478043 
2704.000000	110.499930 
2703.000000	110.524630 
2702.000000	110.551977 
2701.000000	110.579872 
2700.000000	110.605096 
2699.000000	110.627317 
2698.000000	110.646963 
2697.000000	110.660886 
2696.000000	110.666537 
2695.000000	110.669040 
2694.000000	110.675168 
2693.000000	110.683798 
2692.000000	110.690116 
2691.000000	110.695075 
2690.000000	110.700726 
2689.000000	110.704517 
2688.000000	110.705757 
2687.000000	110.711312 
2686.000000	110.724806 
2685.000000	110.741710 
2684.000000	110.762810 
2683.000000	110.798764 
2682.000000	110.851335 
2681.000000	110.906219 
2680.000000	110.953068 
2679.000000	110.996031 
2678.000000	111.038827 
2677.000000	111.078190 
2676.000000	111.115813 
2675.000000	111.159753 
2674.000000	111.208391 
2673.000000	111.251616 
2672.000000	111.287879 
2671.000000	111.325430 
2670.000000	111.366438 
2669.000000	111.405277 
2668.000000	111.439967 
2667.000000	111.472702 
2666.000000	111.501669 
2665.000000	111.524748 
2664.000000	111.546206 
2663.000000	111.571478 
2662.000000	111.597228 
2661.000000	111.616945 
2660.000000	111.629819 
2659.000000	111.640834 
2658.000000	111.653327 
2657.000000	111.667490 
2656.000000	111.681556 
2655.000000	111.693716 
2654.000000	111.703133 
2653.000000	111.711668 
2652.000000	111.721825 
2651.000000	111.733889 
2650.000000	111.744761 
2649.000000	111.750483 
2648.000000	111.750435 
2647.000000	111.748838 
2646.000000	111.749744 
2645.000000	111.752343 
2644.000000	111.754775 
2643.000000	111.760854 
2642.000000	111.776208 
2641.000000	111.799764 
2640.000000	111.825585 
2639.000000	111.850953 
2638.000000	111.874866 
2637.000000	111.894106 
2636.000000	111.910033 
2635.000000	111.931896 
2634.000000	111.963343 
2633.000000	111.995244 
2632.000000	112.021970 
2631.000000	112.051224 
2630.000000	112.088084 
2629.000000	112.123608 
2628.000000	112.151169 
2627.000000	112.176656 
2626.000000	112.203860 
2625.000000	112.225341 
2624.000000	112.237477 
2623.000000	112.246847 
2622.000000	112.257051 
2621.000000	112.264323 
2620.000000	112.269449 
2619.000000	112.278270 
2618.000000	112.288403 
2617.000000	112.291598 
2616.000000	112.287735 
2615.000000	112.282896 
2614.000000	112.276697 
2613.000000	112.265706 
2612.000000	112.254214 
2611.000000	112.248635 
2610.000000	112.245512 
2609.000000	112.238383 
2608.000000	112.230086 
2607.000000	112.228012 
2606.000000	112.232780 
2605.000000	112.240839 
2604.000000	112.252020 
2603.000000	112.267494 
2602.000000	112.284994 
2601.000000	112.300515 
2600.000000	112.312936 
2599.000000	112.324833 
2598.000000	112.338805 
2597.000000	112.354230 
2596.000000	112.369441 
2595.000000	112.385392 
2594.000000	112.404274 
2593.000000	112.424468 
2592.000000	112.442588 
2591.000000	112.459778 
2590.000000	112.479805 
2589.000000	112.501192 
2588.000000	112.520289 
2587.000000	112.539815 
2586.000000	112.564253 
2585.000000	112.590599 
2584.000000	112.614107 
2583.000000	112.637472 
2582.000000	112.663483 
2581.000000	112.686228 
2580.000000	112.702131 
2579.000000	112.719011 
2578.000000	112.742567 
2577.000000	112.764930 
2576.000000	112.778759 
2575.000000	112.788844 
2574.000000	112.800431 
2573.000000	112.809801 
2572.000000	112.816596 
2571.000000	112.827420 
2570.000000	112.841129 
2569.000000	112.847518 
2568.000000	112.845897 
2567.000000	112.846732 
2566.000000	112.852168 
2565.000000	112.854242 
2564.000000	112.852501 
2563.000000	112.854623 
2562.000000	112.859606 
2561.000000	112.859225 
2560.000000	112.854218 
2559.000000	112.851643 
2558.000000	112.851047 
2557.000000	112.845921 
2556.000000	112.837195 
2555.000000	112.830734 
2554.000000	112.827014 
2553.000000	112.821412 
2552.000000	112.812638 
2551.000000	112.803840 
2550.000000	112.798714 
2549.000000	112.799096 
2548.000000	112.805056 
2547.000000	112.814664 
2546.000000	112.825036 
2545.000000	112.833690 
2544.000000	112.840318 
2543.000000	112.847089 
2542.000000	112.855172 
2541.000000	112.861657 
2540.000000	112.863254 
2539.000000	112.863087 
2538.000000	112.866592 
2537.000000	112.872624 
2536.000000	112.875461 
2535.000000	112.875509 
2534.000000	112.878203 
2533.000000	112.883734 
2532.000000	112.888908 
2531.000000	112.895488 
2530.000000	112.904858 
2529.000000	112.911152 
2528.000000	112.911081 
2527.000000	112.913036 
2526.000000	112.924599 
2525.000000	112.939739 
2524.000000	112.951135 
2523.000000	112.962627 
2522.000000	112.978243 
2521.000000	112.992238 
2520.000000	113.000988 
2519.000000	113.010311 
2518.000000	113.021993 
2517.000000	113.029432 
2516.000000	113.033223 
2515.000000	113.043093 
2514.000000	113.059592 
2513.000000	113.071513 
2512.000000	113.075804 
2511.000000	113.081264 
2510.000000	113.091349 
2509.000000	113.099908 
2508.000000	113.104987 
2507.000000	113.111042 
2506.000000	113.118028 
2505.000000	113.122510 
2504.000000	113.126492 
2503.000000	113.134026 
2502.000000	113.142323 
2501.000000	113.146948 
2500.000000	113.150930 
2499.000000	113.159275 
2498.000000	113.169503 
2497.000000	113.175868 
2496.000000	113.177800 
2495.000000	113.179659 
2494.000000	113.184309 
2493.000000	113.191437 
2492.000000	113.199830 
2491.000000	113.208961 
2490.000000	113.218331 
2489.000000	113.227391 
2488.000000	113.235592 
2487.000000	113.243985 
2486.000000	113.253688 
2485.000000	113.262748 
2484.000000	113.269329 
2483.000000	113.276863 
2482.000000	113.289427 
2481.000000	113.303685 
2480.000000	113.313460 
2479.000000	113.319802 
2478.000000	113.327145 
2477.000000	113.332605 
2476.000000	113.332343 
2475.000000	113.331460 
2474.000000	113.335418 
2473.000000	113.338541 
2472.000000	113.335657 
2471.000000	113.332486 
2470.000000	113.333511 
2469.000000	113.330340 
2468.000000	113.317298 
2467.000000	113.302350 
2466.000000	113.291931 
2465.000000	113.279891 
2464.000000	113.263869 
2463.000000	113.252568 
2462.000000	113.249182 
2461.000000	113.245010 
2460.000000	113.236665 
2459.000000	113.231110 
2458.000000	113.228631 
2457.000000	113.221073 
2456.000000	113.208198 
2455.000000	113.198685 
2454.000000	113.194179 
2453.000000	113.189172 
2452.000000	113.184595 
2451.000000	113.185429 
2450.000000	113.188099 
2449.000000	113.184952 
2448.000000	113.177633 
2447.000000	113.172221 
2446.000000	113.168334 
2445.000000	113.161706 
2444.000000	113.153743 
2443.000000	113.147997 
2442.000000	113.143682 
2441.000000	113.138484 
2440.000000	113.134002 
2439.000000	113.133931 
2438.000000	113.138389 
2437.000000	113.143944 
2436.000000	113.148379 
2435.000000	113.154268 
2434.000000	113.165330 
2433.000000	113.179755 
2432.000000	113.192033 
2431.000000	113.200974 
2430.000000	113.209605 
2429.000000	113.217568 
2428.000000	113.222956 
2427.000000	113.229417 
2426.000000	113.240718 
2425.000000	113.250422 
2424.000000	113.250613 
2423.000000	113.245964 
2422.000000	113.245940 
2421.000000	113.248467 
2420.000000	113.248085 
2419.000000	113.249158 
2418.000000	113.257312 
2417.000000	113.265681 
2416.000000	113.266682 
2415.000000	113.264870 
2414.000000	113.264942 
2413.000000	113.260626 
2412.000000	113.248586 
2411.000000	113.236904 
2410.000000	113.230085 
2409.000000	113.221263 
2408.000000	113.208222 
2407.000000	113.197350 
2406.000000	113.187074 
2405.000000	113.166928 
2404.000000	113.137340 
2403.000000	113.110733 
2402.000000	113.090157 
2401.000000	113.067078 
2400.000000	113.039612 
2399.000000	113.015031 
2398.000000	112.993764 
2397.000000	112.969541 
2396.000000	112.941908 
2395.000000	112.917351 
2394.000000	112.896466 
2393.000000	112.877869 
2392.000000	112.862873 
2391.000000	112.853527 
2390.000000	112.842249 
2389.000000	112.821650 
2388.000000	112.788200 
2387.000000	112.743043 
2386.000000	112.680339 
2385.000000	112.593746 
2384.000000	112.477517 
2383.000000	112.333965 
2382.000000	112.165951 
2381.000000	111.975836 
2380.000000	111.764240 
2379.000000	111.537909 
2378.000000	111.300754 
2377.000000	111.043691 
2376.000000	110.752797 
2375.000000	110.431456 
2374.000000	110.087418 
2373.000000	109.709262 
2372.000000	109.285569 
2371.000000	108.842730 
2370.000000	108.412885 
2369.000000	107.990384 
2368.000000	107.559418 
2367.000000	107.152032 
2366.000000	106.796526 
2365.000000	106.473231 
2364.000000	106.166458 
2363.000000	105.927014 
2362.000000	105.792975 
2361.000000	105.730867 
2360.000000	105.718374 
2359.000000	105.807638 
2358.000000	106.036520 
2357.000000	106.357574 
2356.000000	106.719326 
2355.000000	107.138943 
2354.000000	107.638669 
2353.000000	108.188605 
2352.000000	108.740639 
2351.000000	109.254336 
2350.000000	109.657502 
2349.000000	109.847545 
2348.000000	109.762215 
2347.000000	109.433245 
2346.000000	108.966565 
2345.000000	108.493852 
2344.000000	108.126235 
2343.000000	107.917881 
2342.000000	107.852339 
2341.000000	107.876086 
2340.000000	107.936167 
2339.000000	108.002567 
2338.000000	108.062624 
2337.000000	108.123469 
2336.000000	108.198213 
2335.000000	108.286428 
2334.000000	108.364939 
2333.000000	108.411407 
2332.000000	108.432984 
2331.000000	108.462810 
2330.000000	108.535671 
2329.000000	108.655881 
2328.000000	108.805108 
2327.000000	108.960890 
2326.000000	109.112906 
2325.000000	109.253978 
2324.000000	109.383440 
2323.000000	109.518718 
2322.000000	109.682750 
2321.000000	109.874701 
2320.000000	110.074090 
2319.000000	110.270476 
2318.000000	110.464262 
2317.000000	110.641145 
2316.000000	110.779500 
2315.000000	110.880994 
2314.000000	110.964035 
2313.000000	111.037421 
2312.000000	111.107325 
2311.000000	111.192345 
2310.000000	111.303734 
2309.000000	111.424398 
2308.000000	111.539959 
2307.000000	111.661314 
2306.000000	111.795926 
2305.000000	111.920976 
2304.000000	112.015390 
2303.000000	112.087702 
2302.000000	112.154746 
2301.000000	112.216544 
2300.000000	112.274241 
2299.000000	112.338638 
2298.000000	112.409520 
2297.000000	112.471604 
2296.000000	112.521958 
2295.000000	112.574386 
2294.000000	112.633037 
2293.000000	112.687849 
2292.000000	112.736558 
2291.000000	112.787222 
2290.000000	112.839388 
2289.000000	112.885093 
2288.000000	112.925744 
2287.000000	112.969756 
2286.000000	113.015151 
2285.000000	113.052630 
2284.000000	113.079166 
2283.000000	113.097429 
2282.000000	113.106536 
2281.000000	113.106870 
2280.000000	113.105249 
2279.000000	113.109779 
2278.000000	113.120198 
2277.000000	113.131308 
2276.000000	113.139891 
2275.000000	113.147711 
2274.000000	113.156938 
2273.000000	113.165974 
2272.000000	113.171958 
2271.000000	113.176727 
2270.000000	113.183879 
2269.000000	113.190603 
2268.000000	113.191556 
2267.000000	113.190531 
2266.000000	113.195776 
2265.000000	113.204455 
2264.000000	113.207411 
2263.000000	113.206791 
2262.000000	113.211798 
2261.000000	113.220524 
2260.000000	113.225054 
2259.000000	113.228297 
2258.000000	113.235950 
2257.000000	113.241028 
2256.000000	113.237380 
2255.000000	113.234877 
2254.000000	113.240933 
2253.000000	113.244199 
2252.000000	113.235378 
2251.000000	113.225483 
2250.000000	113.224864 
2249.000000	113.225030 
2248.000000	113.218903 
2247.000000	113.215255 
2246.000000	113.219118 
2245.000000	113.221025 
2244.000000	113.217806 
2243.000000	113.219451 
2242.000000	113.227915 
2241.000000	113.233590 
2240.000000	113.236594 
2239.000000	113.247323 
2238.000000	113.264060 
2237.000000	113.274884 
2236.000000	113.279342 
2235.000000	113.286399 
2234.000000	113.294553 
2233.000000	113.296389 
2232.000000	113.297033 
2231.000000	113.307690 
2230.000000	113.325810 
2229.000000	113.339591 
2228.000000	113.345336 
2227.000000	113.348698 
2226.000000	113.353514 
2225.000000	113.359212 
2224.000000	113.365316 
2223.000000	113.372015 
2222.000000	113.378167 
2221.000000	113.380432 
2220.000000	113.376760 
2219.000000	113.370561 
2218.000000	113.367438 
2217.000000	113.366508 
2216.000000	113.362479 
2215.000000	113.356423 
2214.000000	113.354015 
2213.000000	113.352775 
2212.000000	113.345623 
2211.000000	113.335800 
2210.000000	113.331270 
2209.000000	113.327312 
2208.000000	113.314604 
2207.000000	113.299298 
2206.000000	113.293290 
2205.000000	113.291549 
2204.000000	113.283061 
2203.000000	113.272929 
2202.000000	113.269662 
2201.000000	113.265061 
2200.000000	113.251113 
2199.000000	113.238811 
2198.000000	113.237857 
2197.000000	113.237261 
2196.000000	113.226938 
2195.000000	113.215422 
2194.000000	113.209080 
2193.000000	113.198018 
2192.000000	113.178920 
2191.000000	113.164520 
2190.000000	113.158082 
2189.000000	113.146567 
2188.000000	113.127350 
2187.000000	113.113141 
2186.000000	113.106060 
2185.000000	113.093090 
2184.000000	113.071370 
2183.000000	113.051247 
2182.000000	113.034081 
2181.000000	113.012075 
2180.000000	112.987232 
2179.000000	112.968826 
2178.000000	112.955188 
2177.000000	112.937021 
2176.000000	112.914299 
2175.000000	112.893509 
2174.000000	112.875580 
2173.000000	112.856173 
2172.000000	112.835359 
2171.000000	112.817430 
2170.000000	112.804293 
2169.000000	112.792921 
2168.000000	112.780284 
2167.000000	112.768888 
2166.000000	112.764120 
2165.000000	112.764787 
2164.000000	112.765002 
2163.000000	112.764906 
2162.000000	112.770700 
2161.000000	112.780833 
2160.000000	112.787294 
2159.000000	112.792301 
2158.000000	112.804985 
2157.000000	112.822508 
2156.000000	112.833929 
2155.000000	112.841916 
2154.000000	112.856936 
2153.000000	112.874484 
2152.000000	112.883090 
2151.000000	112.887430 
2150.000000	112.898445 
2149.000000	112.910461 
2148.000000	112.914967 
2147.000000	112.920856 
2146.000000	112.936043 
2145.000000	112.948060 
2144.000000	112.947678 
2143.000000	112.947940 
2142.000000	112.958097 
2141.000000	112.963891 
2140.000000	112.955665 
2139.000000	112.947654 
2138.000000	112.950396 
2137.000000	112.953305 
2136.000000	112.949919 
2135.000000	112.950325 
2134.000000	112.957215 
2133.000000	112.959074 
2132.000000	112.953615 
2131.000000	112.951254 
2130.000000	112.951946 
2129.000000	112.944579 
2128.000000	112.929606 
2127.000000	112.918829 
2126.000000	112.913990 
2125.000000	112.906908 
2124.000000	112.896275 
2123.000000	112.886905 
2122.000000	112.876319 
2121.000000	112.859082 
2120.000000	112.838101 
2119.000000	112.821555 
2118.000000	112.810802 
2117.000000	112.800931 
2116.000000	112.788391 
2115.000000	112.774419 
2114.000000	112.760496 
2113.000000	112.743759 
2112.000000	112.719750 
2111.000000	112.690877 
2110.000000	112.665104 
2109.000000	112.644124 
2108.000000	112.623095 
2107.000000	112.603306 
2106.000000	112.589859 
2105.000000	112.576341 
2104.000000	112.550830 
2103.000000	112.517714 
2102.000000	112.490963 
2101.000000	112.467861 
2100.000000	112.436056 
2099.000000	112.400436 
2098.000000	112.372922 
2097.000000	112.345147 
2096.000000	112.303233 
2095.000000	112.256741 
2094.000000	112.220907 
2093.000000	112.186670 
2092.000000	112.140965 
2091.000000	112.094449 
2090.000000	112.059259 
2089.000000	112.023997 
2088.000000	111.978268 
2087.000000	111.934256 
2086.000000	111.899971 
2085.000000	111.861205 
2084.000000	111.811184 
2083.000000	111.765861 
2082.000000	111.732721 
2081.000000	111.697673 
2080.000000	111.655116 
2079.000000	111.618685 
2078.000000	111.593627 
2077.000000	111.568331 
2076.000000	111.538767 
2075.000000	111.514234 
2074.000000	111.496901 
2073.000000	111.478853 
2072.000000	111.459469 
2071.000000	111.444759 
2070.000000	111.432361 
2069.000000	111.414361 
2068.000000	111.391067 
2067.000000	111.368894 
2066.000000	111.348605 
2065.000000	111.325812 
2064.000000	111.299300 
2063.000000	111.271953 
2062.000000	111.245584 
2061.000000	111.217570 
2060.000000	111.184954 
2059.000000	111.151099 
2058.000000	111.122179 
2057.000000	111.095666 
2056.000000	111.062431 
2055.000000	111.023116 
2054.000000	110.987544 
2053.000000	110.954666 
2052.000000	110.913968 
2051.000000	110.868787 
2050.000000	110.833263 
2049.000000	110.805559 
2048.000000	110.771632 
2047.000000	110.734295 
2046.000000	110.707306 
2045.000000	110.685706 
2044.000000	110.654711 
2043.000000	110.620999 
2042.000000	110.600543 
2041.000000	110.589027 
2040.000000	110.575366 
2039.000000	110.570549 
2038.000000	110.586667 
2037.000000	110.612082 
2036.000000	110.634040 
2035.000000	110.663914 
2034.000000	110.708951 
2033.000000	110.752010 
2032.000000	110.781836 
2031.000000	110.814428 
2030.000000	110.859513 
2029.000000	110.901689 
2028.000000	110.931754 
2027.000000	110.963511 
2026.000000	111.003136 
2025.000000	111.037540 
2024.000000	111.061954 
2023.000000	111.088466 
2022.000000	111.121106 
2021.000000	111.150336 
2020.000000	111.173844 
2019.000000	111.199522 
2018.000000	111.226868 
2017.000000	111.247873 
2016.000000	111.263322 
2015.000000	111.281919 
2014.000000	111.305332 
2013.000000	111.327481 
2012.000000	111.345314 
2011.000000	111.361956 
2010.000000	111.379861 
2009.000000	111.397075 
2008.000000	111.409664 
2007.000000	111.418557 
2006.000000	111.428475 
2005.000000	111.440300 
2004.000000	111.449718 
2003.000000	111.458849 
2002.000000	111.474967 
2001.000000	111.494350 
2000.000000	111.504602 
1999.000000	111.507678 
1998.000000	111.517333 
1997.000000	111.531233 
1996.000000	111.534285 
1995.000000	111.530828 
1994.000000	111.537766 
1993.000000	111.548900 
1992.000000	111.544632 
1991.000000	111.532163 
1990.000000	111.533522 
1989.000000	111.543393 
1988.000000	111.543345 
1987.000000	111.541891 
1986.000000	111.555457 
1985.000000	111.570167 
1984.000000	111.566996 
1983.000000	111.558198 
1982.000000	111.561179 
1981.000000	111.564183 
1980.000000	111.554765 
1979.000000	111.547613 
1978.000000	111.553454 
1977.000000	111.555624 
1976.000000	111.544609 
1975.000000	111.538290 
1974.000000	111.546635 
1973.000000	111.553478 
1972.000000	111.550021 
1971.000000	111.549329 
1970.000000	111.556673 
1969.000000	111.558628 
1968.000000	111.549353 
1967.000000	111.539077 
1966.000000	111.533212 
1965.000000	111.526536 
1964.000000	111.519050 
1963.000000	111.517453 
1962.000000	111.521601 
1961.000000	111.524367 
1960.000000	111.523580 
1959.000000	111.523580 
1958.000000	111.526894 
1957.000000	111.529469 
1956.000000	111.525535 
1955.000000	111.516356 
1954.000000	111.509037 
1953.000000	111.504602 
1952.000000	111.496186 
1951.000000	111.484551 
1950.000000	111.480236 
1949.000000	111.482262 
1948.000000	111.476159 
1947.000000	111.462521 
1946.000000	111.459398 
1945.000000	111.467933 
1944.000000	111.467742 
1943.000000	111.454916 
1942.000000	111.448454 
1941.000000	111.453914 
1940.000000	111.458563 
1939.000000	111.463737 
1938.000000	111.481618 
1937.000000	111.502885 
1936.000000	111.509847 
1935.000000	111.513280 
1934.000000	111.531686 
1933.000000	111.552071 
1932.000000	111.555647 
1931.000000	111.558294 
1930.000000	111.579298 
1929.000000	111.600661 
1928.000000	111.603593 
1927.000000	111.607265 
1926.000000	111.629891 
1925.000000	111.649489 
1924.000000	111.644649 
1923.000000	111.632418 
1922.000000	111.632013 
1921.000000	111.632156 
1920.000000	111.622977 
1919.000000	111.617016 
1918.000000	111.618685 
1917.000000	111.612820 
1916.000000	111.597180 
1915.000000	111.588621 
1914.000000	111.589002 
1913.000000	111.581754 
1912.000000	111.563301 
1911.000000	111.546564 
1910.000000	111.533427 
1909.000000	111.512994 
1908.000000	111.484837 
1907.000000	111.459422 
1906.000000	111.439275 
1905.000000	111.416459 
1904.000000	111.386919 
1903.000000	111.356902 
1902.000000	111.332321 
1901.000000	111.307740 
1900.000000	111.272120 
1899.000000	111.228203 
1898.000000	111.191415 
1897.000000	111.163449 
1896.000000	111.126255 
1895.000000	111.076402 
1894.000000	111.034941 
1893.000000	111.010003 
1892.000000	110.980677 
1891.000000	110.934233 
1890.000000	110.882568 
1889.000000	110.830211 
1888.000000	110.770082 
1887.000000	110.714983 
1886.000000	110.685372 
1885.000000	110.665941 
1884.000000	110.626125 
1883.000000	110.577273 
1882.000000	110.551309 
1881.000000	110.538935 
1880.000000	110.511207 
1879.000000	110.481977 
1878.000000	110.479307 
1877.000000	110.486602 
1876.000000	110.475635 
1875.000000	110.464477 
1874.000000	110.477352 
1873.000000	110.494041 
1872.000000	110.493183 
1871.000000	110.497474 
1870.000000	110.520815 
1869.000000	110.533809 
1868.000000	110.523414 
1867.000000	110.526800 
1866.000000	110.564136 
1865.000000	110.604691 
1864.000000	110.627484 
1863.000000	110.653758 
1862.000000	110.695838 
1861.000000	110.733580 
1860.000000	110.757803 
1859.000000	110.785818 
1858.000000	110.824155 
1857.000000	110.858011 
1856.000000	110.882043 
1855.000000	110.907149 
1854.000000	110.937047 
1853.000000	110.963392 
1852.000000	110.981559 
1851.000000	110.995888 
1850.000000	111.009669 
1849.000000	111.018419 
1848.000000	111.014842 
1847.000000	111.001753 
1846.000000	110.988163 
1845.000000	110.968780 
1844.000000	110.926318 
1843.000000	110.871124 
1842.000000	110.840058 
1841.000000	110.837864 
1840.000000	110.824155 
1839.000000	110.783791 
1838.000000	110.747385 
1837.000000	110.722899 
1836.000000	110.680103 
1835.000000	110.624766 
1834.000000	110.599374 
1833.000000	110.595774 
1832.000000	110.559797 
1831.000000	110.488414 
1830.000000	110.427880 
1829.000000	110.379981 
1828.000000	110.312366 
1827.000000	110.241580 
1826.000000	110.199880 
1825.000000	110.150384 
1824.000000	110.049939 
1823.000000	109.941983 
1822.000000	109.879779 
1821.000000	109.820890 
1820.000000	109.711456 
1819.000000	109.587407 
1818.000000	109.493494 
1817.000000	109.390139 
1816.000000	109.244441 
1815.000000	109.104204 
1814.000000	109.001803 
1813.000000	108.882451 
1812.000000	108.708906 
1811.000000	108.524608 
1810.000000	108.363318 
1809.000000	108.193278 
1808.000000	107.996845 
1807.000000	107.804703 
1806.000000	107.626223 
1805.000000	107.431149 
1804.000000	107.212972 
1803.000000	106.992077 
1802.000000	106.757736 
1801.000000	106.480407 
1800.000000	106.170678 
1799.000000	105.871987 
1798.000000	105.597114 
1797.000000	105.327391 
1796.000000	105.048918 
1795.000000	104.763102 
1794.000000	104.448962 
1793.000000	104.065132 
1792.000000	103.590631 
1791.000000	103.084993 
1790.000000	102.643346 
1789.000000	102.289819 
1788.000000	101.934909 
1787.000000	101.500701 
1786.000000	100.995993 
1785.000000	100.465011 
1784.000000	99.905967  
1783.000000	99.324178  
1782.000000	98.732852  
1781.000000	98.080325  
1780.000000	97.298550  
1779.000000	96.466064  
1778.000000	95.713615  
1777.000000	94.983530  
1776.000000	94.145798  
1775.000000	93.242311  
1774.000000	92.296147  
1773.000000	91.040706  
1772.000000	89.340448  
1771.000000	87.567329  
1770.000000	86.132073  
1769.000000	84.780073  
1768.000000	83.032393  
1767.000000	80.951642  
1766.000000	79.034113  
1765.000000	77.335715  
1764.000000	75.396394  
1763.000000	72.769689  
1762.000000	69.482994  
1761.000000	65.939426  
1760.000000	62.598443  
1759.000000	59.431886  
1758.000000	55.726408  
1757.000000	50.890445  
1756.000000	45.463490  
1755.000000	40.611171  
1754.000000	36.548066  
1753.000000	32.318878  
1752.000000	27.251791  
1751.000000	21.787691  
1750.000000	16.730451  
1749.000000	12.512230  
1748.000000	9.383988   
1747.000000	7.396960   
1746.000000	6.154847   
1745.000000	5.180883   
1744.000000	4.560995   
1743.000000	4.435873   
1742.000000	4.553675   
1741.000000	4.772377   
1740.000000	5.587911   
1739.000000	7.069468   
1738.000000	8.483338   
1737.000000	9.505701   
1736.000000	11.323690  
1735.000000	15.261292  
1734.000000	21.075892  
1733.000000	27.130436  
1732.000000	32.240915  
1731.000000	36.584830  
1730.000000	41.041207  
1729.000000	45.878219  
1728.000000	50.512814  
1727.000000	54.408860  
1726.000000	57.781577  
1725.000000	61.144208  
1724.000000	64.596772  
1723.000000	67.795872  
1722.000000	70.391058  
1721.000000	72.324490  
1720.000000	73.951649  
1719.000000	75.821733  
1718.000000	78.161120  
1717.000000	80.550408  
1716.000000	82.451534  
1715.000000	83.756303  
1714.000000	84.749698  
1713.000000	85.615491  
1712.000000	86.381006  
1711.000000	87.054443  
1710.000000	87.692427  
1709.000000	88.264966  
1708.000000	88.732600  
1707.000000	89.103722  
1706.000000	89.425659  
1705.000000	89.667415  
1704.000000	89.774703  
1703.000000	89.783143  
1702.000000	89.874410  
1701.000000	90.201091  
1700.000000	90.702414  
1699.000000	91.194510  
1698.000000	91.673493  
1697.000000	92.326426  
1696.000000	93.230271  
1695.000000	94.186329  
1694.000000	94.927406  
1693.000000	95.404601  
1692.000000	95.803642  
1691.000000	96.299004  
1690.000000	96.860480  
1689.000000	97.343158  
1688.000000	97.700929  
1687.000000	98.008441  
1686.000000	98.327970  
1685.000000	98.686885  
1684.000000	99.106383  
1683.000000	99.533629  
1682.000000	99.828362  
1681.000000	99.973535  
1680.000000	100.123071 
1679.000000	100.357842 
1678.000000	100.562667 
1677.000000	100.692009 
1676.000000	100.861167 
1675.000000	101.104474 
1674.000000	101.276111 
1673.000000	101.321697 
1672.000000	101.359200 
1671.000000	101.429772 
1670.000000	101.408839 
1669.000000	101.242089 
1668.000000	101.033759 
1667.000000	100.857305 
1666.000000	100.650668 
1665.000000	100.322270 
1664.000000	99.819827  
1663.000000	99.122667  
1662.000000	98.287296  
1661.000000	97.475290  
1660.000000	96.818971  
1659.000000	96.304392  
1658.000000	95.848774  
1657.000000	95.442533  
1656.000000	95.132732  
1655.000000	94.950985  
1654.000000	94.892120  
1653.000000	94.949483  
1652.000000	95.091176  
1651.000000	95.264649  
1650.000000	95.432233  
1649.000000	95.643353  
1648.000000	95.998859  
1647.000000	96.532130  
1646.000000	97.120642  
1645.000000	97.615098  
1644.000000	98.038697  
1643.000000	98.578453  
1642.000000	99.345445  
1641.000000	100.249123 
1640.000000	101.127171 
1639.000000	101.924610 
1638.000000	102.704524 
1637.000000	103.539490 
1636.000000	104.409551 
1635.000000	105.178952 
1634.000000	105.694317 
1633.000000	105.949950 
1632.000000	106.105780 
1631.000000	106.299114 
1630.000000	106.506419 
1629.000000	106.664252 
1628.000000	106.794071 
1627.000000	106.933426 
1626.000000	107.038593 
1625.000000	107.090377 
1624.000000	107.155895 
1623.000000	107.277870 
1622.000000	107.390737 
1621.000000	107.454800 
1620.000000	107.524251 
1619.000000	107.641267 
1618.000000	107.765841 
1617.000000	107.868504 
1616.000000	107.968449 
1615.000000	108.067107 
1614.000000	108.135461 
1613.000000	108.180594 
1612.000000	108.242058 
1611.000000	108.320832 
1610.000000	108.382058 
1609.000000	108.419752 
1608.000000	108.459138 
1607.000000	108.505892 
1606.000000	108.543109 
1605.000000	108.565330 
1604.000000	108.586859 
1603.000000	108.615684 
1602.000000	108.642721 
1601.000000	108.655738 
1600.000000	108.662033 
1599.000000	108.679056 
1598.000000	108.702516 
1597.000000	108.705615 
1596.000000	108.686947 
1595.000000	108.677244 
1594.000000	108.682942 
1593.000000	108.674335 
1592.000000	108.649086 
1591.000000	108.639574 
1590.000000	108.643317 
1589.000000	108.623814 
1588.000000	108.589959 
1587.000000	108.584856 
1586.000000	108.597874 
1585.000000	108.584976 
1584.000000	108.563709 
1583.000000	108.579230 
1582.000000	108.604645 
1581.000000	108.593702 
1580.000000	108.585619 
1579.000000	108.632349 
1578.000000	108.684515 
1577.000000	108.677244 
1576.000000	108.651518 
1575.000000	108.665823 
1574.000000	108.685970 
1573.000000	108.675217 
1572.000000	108.683896 
1571.000000	108.739924 
1570.000000	108.771896 
1569.000000	108.738899 
1568.000000	108.709120 
1567.000000	108.729457 
1566.000000	108.748960 
1565.000000	108.735466 
1564.000000	108.733439 
1563.000000	108.763194 
1562.000000	108.791780 
1561.000000	108.822798 
1560.000000	108.884859 
1559.000000	108.933019 
1558.000000	108.890628 
1557.000000	108.783626 
1556.000000	108.712530 
1555.000000	108.705782 
1554.000000	108.704924 
1553.000000	108.672165 
1552.000000	108.635282 
1551.000000	108.626699 
1550.000000	108.625912 
1549.000000	108.588886 
1548.000000	108.534669 
1547.000000	108.531832 
1546.000000	108.566546 
1545.000000	108.538460 
1544.000000	108.460593 
1543.000000	108.476305 
1542.000000	108.580970 
1541.000000	108.569002 
1540.000000	108.381819 
1539.000000	108.222341 
1538.000000	108.204960 
1537.000000	108.202171 
1536.000000	108.136510 
1535.000000	108.096218 
1534.000000	108.088564 
1533.000000	108.004307 
1532.000000	107.869100 
1531.000000	107.822465 
1530.000000	107.842230 
1529.000000	107.792162 
1528.000000	107.695293 
1527.000000	107.660484 
1526.000000	107.634043 
1525.000000	107.526612 
1524.000000	107.435631 
1523.000000	107.447957 
1522.000000	107.417869 
1521.000000	107.229948 
1520.000000	107.044315 
1519.000000	107.012152 
1518.000000	106.998825 
1517.000000	106.849098 
1516.000000	106.664490 
1515.000000	106.588435 
1514.000000	106.557679 
1513.000000	106.461548 
1512.000000	106.337523 
1511.000000	106.266736 
1510.000000	106.227755 
1509.000000	106.149959 
1508.000000	106.000781 
1507.000000	105.785417 
1506.000000	105.534601 
1505.000000	105.303430 
1504.000000	105.138516 
1503.000000	105.036616 
1502.000000	104.945564 
1501.000000	104.806160 
1500.000000	104.621076 
1499.000000	104.447984 
1498.000000	104.286146 
1497.000000	104.036355 
1496.000000	103.681302 
1495.000000	103.366875 
1494.000000	103.187322 
1493.000000	103.013491 
1492.000000	102.725625 
1491.000000	102.390885 
1490.000000	102.070522 
1489.000000	101.648902 
1488.000000	101.099038 
1487.000000	100.592732 
1486.000000	100.213384 
1485.000000	99.776124  
1484.000000	99.229264  
1483.000000	98.699069  
1482.000000	98.104310  
1481.000000	97.235345  
1480.000000	96.295237  
1479.000000	95.562815  
1478.000000	94.696712  
1477.000000	93.279218  
1476.000000	91.728091  
1475.000000	90.344357  
1474.000000	88.034057  
1473.000000	83.609127  
1472.000000	77.862167  
1471.000000	72.625112  
1470.000000	68.395256  
1469.000000	64.441370  
1468.000000	60.554528  
1467.000000	57.105207  
1466.000000	54.115176  
1465.000000	51.541376  
1464.000000	49.840521  
1463.000000	49.267888  
1462.000000	49.301290  
1461.000000	49.378871  
1460.000000	49.525856  
1459.000000	49.800777  
1458.000000	49.970483  
1457.000000	50.049352  
1456.000000	50.443792  
1455.000000	51.254868  
1454.000000	52.118301  
1453.000000	52.820944  
1452.000000	53.508782  
1451.000000	54.170680  
1450.000000	54.513311  
1449.000000	54.442787  
1448.000000	54.142498  
1447.000000	53.716063  
1446.000000	53.102898  
1445.000000	52.331805  
1444.000000	51.404643  
1443.000000	50.174593  
1442.000000	48.533034  
1441.000000	46.659898  
1440.000000	44.737625  
1439.000000	42.744421  
1438.000000	40.705585  
1437.000000	39.055514  
1436.000000	38.465094  
1435.000000	39.310359  
1434.000000	41.439390  
1433.000000	44.464373  
1432.000000	48.184061  
1431.000000	52.546358  
1430.000000	57.223796  
1429.000000	61.518979  
1428.000000	64.839005  
1427.000000	67.160630  
1426.000000	68.889021  
1425.000000	70.374345  
1424.000000	71.635818  
1423.000000	72.520041  
1422.000000	73.022150  
1421.000000	73.438191  
1420.000000	74.157023  
1419.000000	75.370264  
1418.000000	76.940536  
1417.000000	78.633666  
1416.000000	80.295777  
1415.000000	81.960988  
1414.000000	83.661508  
1413.000000	85.377073  
1412.000000	86.971139  
1411.000000	88.317537  
1410.000000	89.331841  
1409.000000	90.018057  
1408.000000	90.384006  
1407.000000	90.374755  
1406.000000	89.888310  
1405.000000	88.903355  
1404.000000	87.559080  
1403.000000	86.085247  
1402.000000	84.676384  
1401.000000	83.425831  
1400.000000	82.384109  
1399.000000	81.608271  
1398.000000	81.118249  
1397.000000	80.827689  
1396.000000	80.594635  
1395.000000	80.362057  
1394.000000	80.261945  
1393.000000	80.513358  
1392.000000	81.203269  
1391.000000	82.207632  
1390.000000	83.407545  
1389.000000	84.822368  
1388.000000	86.399841  
1387.000000	87.813925  
1386.000000	88.685584  
1385.000000	88.925504  
1384.000000	88.648104  
1383.000000	87.929916  
1382.000000	86.813211  
1381.000000	85.429668  
1380.000000	83.922266  
1379.000000	82.365298  
1378.000000	80.852580  
1377.000000	79.482173  
1376.000000	78.205013  
1375.000000	76.878929  
1374.000000	75.547933  
1373.000000	74.446654  
1372.000000	73.697257  
1371.000000	73.169922  
1370.000000	72.691416  
1369.000000	72.200393  
1368.000000	71.697854  
1367.000000	71.170687  
1366.000000	70.635485  
1365.000000	70.123386  
1364.000000	69.664001  
1363.000000	69.299650  
1362.000000	69.135975  
1361.000000	69.237613  
1360.000000	69.573235  
1359.000000	70.042657  
1358.000000	70.598602  
1357.000000	71.220636  
1356.000000	71.888780  
1355.000000	72.557663  
1354.000000	73.211359  
1353.000000	73.855853  
1352.000000	74.515962  
1351.000000	75.213408  
1350.000000	75.967097  
1349.000000	76.780033  
1348.000000	77.646851  
1347.000000	78.555154  
1346.000000	79.490208  
1345.000000	80.429196  
1344.000000	81.334447  
1343.000000	82.154488  
1342.000000	82.862544  
1341.000000	83.473992  
1340.000000	84.000444  
1339.000000	84.394216  
1338.000000	84.607028  
1337.000000	84.664702  
1336.000000	84.646654  
1335.000000	84.584355  
1334.000000	84.461879  
1333.000000	84.260296  
1332.000000	83.974432  
1331.000000	83.574366  
1330.000000	83.037281  
1329.000000	82.372689  
1328.000000	81.625342  
1327.000000	80.833768  
1326.000000	80.039691  
1325.000000	79.286146  
1324.000000	78.622436  
1323.000000	78.082704  
1322.000000	77.687597  
1321.000000	77.438020  
1320.000000	77.320814  
1319.000000	77.307271  
1318.000000	77.356672  
1317.000000	77.425456  
1316.000000	77.479481  
1315.000000	77.487444  
1314.000000	77.414584  
1313.000000	77.235293  
1312.000000	76.964068  
1311.000000	76.651191  
1310.000000	76.362347  
1309.000000	76.160097  
1308.000000	76.094961  
1307.000000	76.173877  
1306.000000	76.346516  
1305.000000	76.545166  
1304.000000	76.726722  
1303.000000	76.880550  
1302.000000	76.996231  
1301.000000	77.075147  
1300.000000	77.122020  
1299.000000	77.143573  
1298.000000	77.128624  
1297.000000	77.077984  
1296.000000	77.001523  
1295.000000	76.905870  
1294.000000	76.773548  
1293.000000	76.577901  
1292.000000	76.290297  
1291.000000	75.878572  
1290.000000	75.308465  
1289.000000	74.562263  
1288.000000	73.653507  
1287.000000	72.623801  
1286.000000	71.528744  
1285.000000	70.421361  
1284.000000	69.350862  
1283.000000	68.358826  
1282.000000	67.477416  
1281.000000	66.715621  
1280.000000	66.066050  
1279.000000	65.506386  
1278.000000	64.996528  
1277.000000	64.480829  
1276.000000	63.912701  
1275.000000	63.276743  
1274.000000	62.570953  
1273.000000	61.804485  
1272.000000	61.009073  
1271.000000	60.245633  
1270.000000	59.556221  
1269.000000	58.949279  
1268.000000	58.423089  
1267.000000	57.988190  
1266.000000	57.643222  
1265.000000	57.369565  
1264.000000	57.155418  
1263.000000	56.992197  
1262.000000	56.844067  
1261.000000	56.653952  
1260.000000	56.389284  
1259.000000	56.041383  
1258.000000	55.598783  
1257.000000	55.044913  
1256.000000	54.398131  
1255.000000	53.690576  
1254.000000	52.945208  
1253.000000	52.168822  
1252.000000	51.392984  
1251.000000	50.652003  
1250.000000	49.975037  
1249.000000	49.383592  
1248.000000	48.920321  
1247.000000	48.619031  
1246.000000	48.494386  
1245.000000	48.542094  
1244.000000	48.759245  
1243.000000	49.126529  
1242.000000	49.610161  
1241.000000	50.175261  
1240.000000	50.805377  
1239.000000	51.488232  
1238.000000	52.206826  
1237.000000	52.937793  
1236.000000	53.660440  
1235.000000	54.355692  
1234.000000	55.006003  
1233.000000	55.593419  
1232.000000	56.104516  
1231.000000	56.528306  
1230.000000	56.857395  
1229.000000	57.077980  
1228.000000	57.183623  
1227.000000	57.171392  
1226.000000	57.050991  
1225.000000	56.823992  
1224.000000	56.509542  
1223.000000	56.126403  
1222.000000	55.697464  
1221.000000	55.213928  
1220.000000	54.681086  
1219.000000	54.103827  
1218.000000	53.492259  
1217.000000	52.827763  
1216.000000	52.114009  
1215.000000	51.365399  
1214.000000	50.589966  
1213.000000	49.766325  
1212.000000	48.891997  
1211.000000	47.982501  
1210.000000	47.038125  
1209.000000	46.034049  
1208.000000	44.967555  
1207.000000	43.856644  
1206.000000	42.707204  
1205.000000	41.511678  
1204.000000	40.299057  
1203.000000	39.118051  
1202.000000	38.003826  
1201.000000	36.978387  
1200.000000	36.098194  
1199.000000	35.429811  
1198.000000	35.013127  
1197.000000	34.870672  
1196.000000	35.034656  
1195.000000	35.532593  
1194.000000	36.347198  
1193.000000	37.441635  
1192.000000	38.768410  
1191.000000	40.258073  
1190.000000	41.793060  
1189.000000	43.238234  
1188.000000	44.470429  
1187.000000	45.378971  
1186.000000	45.872521  
1185.000000	45.896792  
1184.000000	45.456695  
1183.000000	44.599294  
1182.000000	43.399786  
1181.000000	41.946625  
1180.000000	40.345644  
1179.000000	38.711643  
1178.000000	37.147498  
1177.000000	35.722398  
1176.000000	34.484910  
1175.000000	33.485555  
1174.000000	32.762932  
1173.000000	32.324123  
1172.000000	32.156801  
1171.000000	32.268261  
1170.000000	32.652401  
1169.000000	33.287525  
1168.000000	34.137082  
1167.000000	35.210013  
1166.000000	36.490583  
1165.000000	37.949895  
1164.000000	39.535689  
1163.000000	41.241884  
1162.000000	43.040037  
1161.000000	44.893360  
1160.000000	46.764564  
1159.000000	48.656654  
1158.000000	50.560140  
1157.000000	52.452230  
1156.000000	54.321336  
1155.000000	56.178617  
1154.000000	58.015179  
1153.000000	59.797215  
1152.000000	61.497354  
1151.000000	63.100767  
1150.000000	64.575505  
1149.000000	65.877246  
1148.000000	66.978526  
1147.000000	67.874979  
1146.000000	68.562912  
1145.000000	69.053244  
1144.000000	69.383239  
1143.000000	69.610214  
1142.000000	69.777441  
1141.000000	69.938015  
1140.000000	70.151758  
1139.000000	70.480537  
1138.000000	70.945811  
1137.000000	71.564936  
1136.000000	72.342872  
1135.000000	73.273420  
1134.000000	74.311518  
1133.000000	75.416421  
1132.000000	76.554059  
1131.000000	77.689075  
1130.000000	78.770637  
1129.000000	79.762148  
1128.000000	80.644464  
1127.000000	81.396961  
1126.000000	81.998205  
1125.000000	82.449936  
1124.000000	82.779932  
1123.000000	83.014845  
1122.000000	83.184289  
1121.000000	83.327341  
1120.000000	83.483386  
1119.000000	83.651638  
1118.000000	83.808231  
1117.000000	83.923649  
1116.000000	83.974909  
1115.000000	83.925914  
1114.000000	83.747267  
1113.000000	83.430671  
1112.000000	82.987999  
1111.000000	82.436919  
1110.000000	81.808018  
1109.000000	81.149506  
1108.000000	80.518484  
1107.000000	79.968595  
1106.000000	79.551148  
1105.000000	79.314875  
1104.000000	79.295015  
1103.000000	79.496431  
1102.000000	79.888463  
1101.000000	80.413317  
1100.000000	81.005978  
1099.000000	81.603765  
1098.000000	82.153058  
1097.000000	82.614183  
1096.000000	82.976174  
1095.000000	83.249616  
1094.000000	83.459019  
1093.000000	83.635640  
1092.000000	83.820128  
1091.000000	84.045219  
1090.000000	84.321260  
1089.000000	84.653401  
1088.000000	85.045838  
1087.000000	85.504794  
1086.000000	86.006784  
1085.000000	86.536598  
1084.000000	87.080740  
1083.000000	87.631177  
1082.000000	88.152170  
1081.000000	88.603353  
1080.000000	88.946342  
1079.000000	89.138793  
1078.000000	89.135742  
1077.000000	88.907980  
1076.000000	88.448643  
1075.000000	87.748265  
1074.000000	86.807203  
1073.000000	85.674118  
1072.000000	84.469032  
1071.000000	83.353400  
1070.000000	82.494926  
1069.000000	82.027363  
1068.000000	82.001233  
1067.000000	82.354164  
1066.000000	82.957744  
1065.000000	83.693528  
1064.000000	84.483361  
1063.000000	85.276174  
1062.000000	86.045908  
1061.000000	86.800718  
1060.000000	87.552714  
1059.000000	88.301110  
1058.000000	89.035129  
1057.000000	89.760398  
1056.000000	90.473484  
1055.000000	91.154718  
1054.000000	91.773080  
1053.000000	92.309427  
1052.000000	92.745494  
1051.000000	93.060445  
1050.000000	93.245196  
1049.000000	93.307089  
1048.000000	93.264007  
1047.000000	93.132686  
1046.000000	92.935228  
1045.000000	92.697739  
1044.000000	92.442321  
1043.000000	92.182993  
1042.000000	91.925835  
1041.000000	91.679501  
1040.000000	91.448664  
1039.000000	91.235089  
1038.000000	91.024661  
1037.000000	90.802741  
1036.000000	90.552949  
1035.000000	90.259003  
1034.000000	89.895176  
1033.000000	89.443755  
1032.000000	88.904809  
1031.000000	88.280320  
1030.000000	87.569069  
1029.000000	86.777853  
1028.000000	85.939359  
1027.000000	85.083889  
1026.000000	84.236550  
1025.000000	83.429217  
1024.000000	82.713747  
1023.000000	82.125496  
1022.000000	81.673097  
1021.000000	81.353640  
1020.000000	81.167984  
1019.000000	81.104493  
1018.000000	81.140899  
1017.000000	81.265068  
1016.000000	81.475067  
1015.000000	81.761574  
1014.000000	82.107758  
1013.000000	82.511997  
1012.000000	82.977342  
1011.000000	83.495259  
1010.000000	84.042525  
1009.000000	84.606432  
1008.000000	85.172772  
1007.000000	85.720229  
1006.000000	86.221909  
1005.000000	86.666989  
1004.000000	87.048435  
1003.000000	87.358880  
1002.000000	87.597012  
1001.000000	87.778735  
1000.000000	87.920331  
999.000000	 88.029313  
998.000000	 88.111567  
997.000000	 88.181328  
996.000000	 88.251709  
995.000000	 88.327240  
994.000000	 88.408446  
993.000000	 88.499903  
992.000000	 88.610196  
991.000000	 88.747358  
990.000000	 88.917469  
989.000000	 89.126944  
988.000000	 89.385652  
987.000000	 89.702057  
986.000000	 90.077972  
985.000000	 90.509819  
984.000000	 90.993857  
983.000000	 91.516780  
982.000000	 92.051863  
981.000000	 92.566895  
980.000000	 93.043828  
979.000000	 93.469119  
978.000000	 93.830966  
977.000000	 94.127392  
976.000000	 94.378876  
975.000000	 94.609379  
974.000000	 94.833302  
973.000000	 95.065593  
972.000000	 95.327091  
971.000000	 95.628380  
970.000000	 95.960783  
969.000000	 96.320295  
968.000000	 96.708750  
967.000000	 97.114849  
966.000000	 97.510528  
965.000000	 97.880578  
964.000000	 98.223829  
963.000000	 98.529624  
962.000000	 98.778915  
961.000000	 98.971843  
960.000000	 99.125075  
959.000000	 99.239993  
958.000000	 99.307227  
957.000000	 99.328374  
956.000000	 99.315881  
955.000000	 99.264597  
954.000000	 99.165630  
953.000000	 99.020528  
952.000000	 98.839688  
951.000000	 98.616981  
950.000000	 98.346853  
949.000000	 98.033809  
948.000000	 97.689580  
947.000000	 97.315621  
946.000000	 96.918630  
945.000000	 96.515202  
944.000000	 96.123409  
943.000000	 95.750498  
942.000000	 95.405435  
941.000000	 95.102000  
940.000000	 94.850611  
939.000000	 94.648957  
938.000000	 94.489645  
937.000000	 94.365787  
936.000000	 94.270467  
935.000000	 94.191312  
934.000000	 94.112348  
933.000000	 94.019150  
932.000000	 93.904399  
931.000000	 93.762493  
930.000000	 93.587303  
929.000000	 93.374752  
928.000000	 93.133234  
927.000000	 92.870044  
926.000000	 92.588400  
925.000000	 92.289686  
924.000000	 91.989040  
923.000000	 91.694283  
922.000000	 91.403126  
921.000000	 91.111445  
920.000000	 90.834140  
919.000000	 90.585422  
918.000000	 90.373063  
917.000000	 90.208029  
916.000000	 90.115237  
915.000000	 90.109729  
914.000000	 90.189194  
913.000000	 90.347838  
912.000000	 90.582704  
911.000000	 90.875291  
910.000000	 91.195368  
909.000000	 91.524171  
908.000000	 91.856646  
907.000000	 92.180657  
906.000000	 92.479634  
905.000000	 92.752790  
904.000000	 93.007779  
903.000000	 93.237638  
902.000000	 93.428993  
901.000000	 93.584394  
900.000000	 93.718218  
899.000000	 93.831920  
898.000000	 93.920946  
897.000000	 93.987298  
896.000000	 94.037032  
895.000000	 94.063997  
894.000000	 94.059491  
893.000000	 94.020652  
892.000000	 93.946027  
891.000000	 93.827843  
890.000000	 93.660783  
889.000000	 93.448448  
888.000000	 93.199586  
887.000000	 92.925047  
886.000000	 92.645740  
885.000000	 92.395091  
884.000000	 92.212581  
883.000000	 92.128014  
882.000000	 92.155361  
881.000000	 92.291545  
880.000000	 92.523169  
879.000000	 92.819595  
878.000000	 93.133544  
877.000000	 93.409538  
876.000000	 93.606948  
875.000000	 93.693256  
874.000000	 93.641948  
873.000000	 93.430018  
872.000000	 93.060898  
871.000000	 92.555570  
870.000000	 91.959023  
869.000000	 91.344833  
868.000000	 90.821313  
867.000000	 90.493392  
866.000000	 90.424346  
865.000000	 90.627002  
864.000000	 91.064071  
863.000000	 91.652703  
862.000000	 92.285180  
861.000000	 92.881345  
860.000000	 93.404388  
859.000000	 93.838453  
858.000000	 94.173669  
857.000000	 94.423913  
856.000000	 94.623446  
855.000000	 94.795775  
854.000000	 94.945979  
853.000000	 95.082402  
852.000000	 95.218420  
851.000000	 95.352363  
850.000000	 95.470094  
849.000000	 95.563650  
848.000000	 95.630264  
847.000000	 95.657157  
846.000000	 95.640492  
845.000000	 95.607638  
844.000000	 95.608878  
843.000000	 95.683503  
842.000000	 95.846581  
841.000000	 96.091699  
840.000000	 96.391987  
839.000000	 96.708679  
838.000000	 97.010993  
837.000000	 97.292447  
836.000000	 97.561955  
835.000000	 97.831726  
834.000000	 98.110222  
833.000000	 98.404335  
832.000000	 98.717331  
831.000000	 99.047803  
830.000000	 99.389100  
829.000000	 99.733185  
828.000000	 100.073432 
827.000000	 100.403952 
826.000000	 100.715684 
825.000000	 101.004719 
824.000000	 101.276874 
823.000000	 101.537966 
822.000000	 101.777696 
821.000000	 101.984691 
820.000000	 102.160549 
819.000000	 102.311301 
818.000000	 102.423691 
817.000000	 102.487659 
816.000000	 102.510643 
815.000000	 102.510833 
814.000000	 102.484011 
813.000000	 102.428960 
812.000000	 102.352547 
811.000000	 102.268552 
810.000000	 102.167797 
809.000000	 102.046942 
808.000000	 101.909136 
807.000000	 101.756191 
806.000000	 101.574397 
805.000000	 101.357603 
804.000000	 101.107263 
803.000000	 100.812387 
802.000000	 100.446391 
801.000000	 99.992036  
800.000000	 99.447584  
799.000000	 98.812556  
798.000000	 98.096036  
797.000000	 97.343993  
796.000000	 96.635603  
795.000000	 96.050548  
794.000000	 95.650506  
793.000000	 95.477819  
792.000000	 95.544147  
791.000000	 95.816946  
790.000000	 96.234178  
789.000000	 96.730852  
788.000000	 97.249865  
787.000000	 97.743773  
786.000000	 98.176789  
785.000000	 98.534679  
784.000000	 98.818206  
783.000000	 99.037480  
782.000000	 99.198746  
781.000000	 99.308300  
780.000000	 99.374461  
779.000000	 99.405932  
778.000000	 99.399733  
777.000000	 99.346327  
776.000000	 99.245715  
775.000000	 99.106836  
774.000000	 98.930263  
773.000000	 98.708558  
772.000000	 98.443531  
771.000000	 98.145842  
770.000000	 97.814083  
769.000000	 97.440052  
768.000000	 97.022724  
767.000000	 96.572494  
766.000000	 96.086835  
765.000000	 95.565581  
764.000000	 95.014691  
763.000000	 94.450449  
762.000000	 93.868350  
761.000000	 93.264174  
760.000000	 92.632293  
759.000000	 91.975831  
758.000000	 91.284060  
757.000000	 90.557336  
756.000000	 89.796853  
755.000000	 89.000105  
754.000000	 88.145399  
753.000000	 87.224507  
752.000000	 86.244273  
751.000000	 85.214543  
750.000000	 84.132337  
749.000000	 83.002829  
748.000000	 81.841111  
747.000000	 80.658054  
746.000000	 79.455161  
745.000000	 78.239488  
744.000000	 77.022957  
743.000000	 75.807547  
742.000000	 74.586296  
741.000000	 73.359942  
740.000000	 72.133851  
739.000000	 70.907044  
738.000000	 69.670820  
737.000000	 68.429207  
736.000000	 67.187571  
735.000000	 65.954279  
734.000000	 64.729762  
733.000000	 63.529348  
732.000000	 62.355828  
731.000000	 61.214733  
730.000000	 60.110139  
729.000000	 59.070467  
728.000000	 58.113336  
727.000000	 57.258868  
726.000000	 56.532764  
725.000000	 55.978131  
724.000000	 55.607151  
723.000000	 55.400037  
722.000000	 55.325579  
721.000000	 55.363702  
720.000000	 55.482745  
719.000000	 55.640101  
718.000000	 55.807304  
717.000000	 55.978822  
716.000000	 56.156992  
715.000000	 56.342840  
714.000000	 56.550574  
713.000000	 56.791710  
712.000000	 57.068276  
711.000000	 57.369780  
710.000000	 57.699632  
709.000000	 58.055782  
708.000000	 58.428764  
707.000000	 58.801341  
706.000000	 59.174847  
705.000000	 59.555721  
704.000000	 59.948778  
703.000000	 60.349488  
702.000000	 60.760116  
701.000000	 61.186814  
700.000000	 61.638092  
699.000000	 62.110495  
698.000000	 62.597990  
697.000000	 63.100433  
696.000000	 63.625025  
695.000000	 64.165687  
694.000000	 64.709568  
693.000000	 65.258622  
692.000000	 65.824770  
691.000000	 66.402578  
690.000000	 66.982650  
689.000000	 67.584753  
688.000000	 68.231749  
687.000000	 68.903350  
686.000000	 69.566941  
685.000000	 70.236802  
684.000000	 70.946240  
683.000000	 71.687960  
682.000000	 72.433781  
681.000000	 73.206090  
680.000000	 74.029469  
679.000000	 74.869370  
678.000000	 75.701713  
677.000000	 76.569724  
676.000000	 77.475357  
675.000000	 78.347802  
674.000000	 79.192423  
673.000000	 80.056905  
672.000000	 80.792737  
671.000000	 81.214261  
670.000000	 81.575751  
669.000000	 82.412767  
668.000000	 83.779978  
667.000000	 85.117149  
666.000000	 86.001801  
665.000000	 86.574697  
664.000000	 87.130141  
663.000000	 87.721633  
662.000000	 88.287353  
661.000000	 88.834428  
660.000000	 89.379692  
659.000000	 89.902758  
658.000000	 90.394639  
657.000000	 90.866994  
656.000000	 91.312527  
655.000000	 91.724967  
654.000000	 92.115092  
653.000000	 92.494654  
652.000000	 92.856407  
651.000000	 93.202519  
650.000000	 93.542838  
649.000000	 93.896746  
648.000000	 94.264864  
647.000000	 94.631838  
646.000000	 94.975900  
645.000000	 95.290684  
644.000000	 95.579886  
643.000000	 95.851230  
642.000000	 96.108078  
641.000000	 96.358084  
640.000000	 96.603512  
639.000000	 96.830344  
638.000000	 97.021746  
637.000000	 97.186398  
636.000000	 97.344779  
635.000000	 97.491216  
634.000000	 97.604465  
633.000000	 97.684717  
632.000000	 97.747778  
631.000000	 97.785186  
630.000000	 97.782802  
629.000000	 97.751879  
628.000000	 97.712707  
627.000000	 97.651958  
626.000000	 97.551846  
625.000000	 97.424006  
624.000000	 97.290849  
623.000000	 97.143721  
622.000000	 96.966791  
621.000000	 96.762132  
620.000000	 96.535062  
619.000000	 96.280360  
618.000000	 96.013569  
617.000000	 95.772814  
616.000000	 95.573425  
615.000000	 95.392441  
614.000000	 95.213341  
613.000000	 95.047378  
612.000000	 94.903039  
611.000000	 94.772100  
610.000000	 94.656133  
609.000000	 94.571280  
608.000000	 94.521450  
607.000000	 94.493198  
606.000000	 94.479775  
605.000000	 94.484519  
604.000000	 94.506430  
603.000000	 94.537854  
602.000000	 94.578909  
601.000000	 94.630074  
600.000000	 94.684386  
599.000000	 94.731402  
598.000000	 94.773197  
597.000000	 94.817423  
596.000000	 94.867849  
595.000000	 94.917678  
594.000000	 94.959807  
593.000000	 94.988870  
592.000000	 95.006752  
591.000000	 95.018291  
590.000000	 95.030808  
589.000000	 95.047426  
588.000000	 95.069289  
587.000000	 95.096540  
586.000000	 95.133471  
585.000000	 95.188689  
584.000000	 95.270967  
583.000000	 95.382857  
582.000000	 95.523190  
581.000000	 95.693492  
580.000000	 95.890545  
579.000000	 96.099686  
578.000000	 96.309876  
577.000000	 96.530294  
576.000000	 96.769976  
575.000000	 97.015619  
574.000000	 97.248840  
573.000000	 97.476482  
572.000000	 97.710013  
571.000000	 97.941017  
570.000000	 98.158788  
569.000000	 98.376512  
568.000000	 98.604393  
567.000000	 98.828768  
566.000000	 99.039697  
565.000000	 99.251127  
564.000000	 99.467587  
563.000000	 99.670052  
562.000000	 99.855732  
561.000000	 100.047349 
560.000000	 100.248789 
559.000000	 100.436568 
558.000000	 100.608325 
557.000000	 100.789904 
556.000000	 100.987434 
555.000000	 101.178860 
554.000000	 101.357126 
553.000000	 101.538300 
552.000000	 101.725125 
551.000000	 101.904559 
550.000000	 102.076959 
549.000000	 102.250933 
548.000000	 102.416300 
547.000000	 102.561020 
546.000000	 102.696609 
545.000000	 102.837634 
544.000000	 102.973103 
543.000000	 103.094100 
542.000000	 103.214669 
541.000000	 103.342962 
540.000000	 103.456521 
539.000000	 103.542184 
538.000000	 103.621411 
537.000000	 103.713989 
536.000000	 103.805637 
535.000000	 103.877902 
534.000000	 103.936314 
533.000000	 103.993749 
532.000000	 104.049515 
531.000000	 104.100131 
530.000000	 104.146623 
529.000000	 104.185628 
528.000000	 104.211974 
527.000000	 104.232168 
526.000000	 104.258441 
525.000000	 104.290604 
524.000000	 104.320859 
523.000000	 104.349827 
522.000000	 104.383540 
521.000000	 104.416656 
520.000000	 104.435396 
519.000000	 104.433965 
518.000000	 104.422998 
517.000000	 104.417824 
516.000000	 104.423618 
515.000000	 104.434013 
514.000000	 104.444313 
513.000000	 104.454207 
512.000000	 104.456686 
511.000000	 104.439020 
510.000000	 104.404115 
509.000000	 104.376006 
508.000000	 104.373121 
507.000000	 104.388308 
506.000000	 104.403829 
505.000000	 104.413747 
504.000000	 104.423856 
503.000000	 104.436898 
502.000000	 104.448246 
501.000000	 104.454183 
500.000000	 104.460954 
499.000000	 104.482102 
498.000000	 104.524397 
497.000000	 104.575157 
496.000000	 104.609560 
495.000000	 104.614639 
494.000000	 104.602479 
493.000000	 104.592370 
492.000000	 104.590344 
491.000000	 104.594898 
490.000000	 104.609441 
489.000000	 104.634714 
488.000000	 104.658055 
487.000000	 104.668402 
486.000000	 104.670858 
485.000000	 104.675507 
484.000000	 104.682159 
483.000000	 104.689645 
482.000000	 104.705309 
481.000000	 104.734611 
480.000000	 104.771494 
479.000000	 104.805707 
478.000000	 104.828214 
477.000000	 104.829883 
476.000000	 104.808688 
475.000000	 104.779100 
474.000000	 104.761004 
473.000000	 104.758739 
472.000000	 104.759263 
471.000000	 104.752159 
470.000000	 104.746866 
469.000000	 104.762053 
468.000000	 104.794812 
467.000000	 104.811906 
466.000000	 104.788804 
465.000000	 104.739642 
464.000000	 104.687094 
463.000000	 104.626822 
462.000000	 104.557490 
461.000000	 104.504966 
460.000000	 104.480648 
459.000000	 104.450941 
458.000000	 104.395961 
457.000000	 104.344129 
456.000000	 104.312324 
455.000000	 104.266357 
454.000000	 104.187011 
453.000000	 104.102492 
452.000000	 104.028534 
451.000000	 103.944897 
450.000000	 103.855514 
449.000000	 103.785467 
448.000000	 103.710913 
447.000000	 103.580689 
446.000000	 103.410220 
445.000000	 103.259038 
444.000000	 103.123497 
443.000000	 102.946496 
442.000000	 102.723431 
441.000000	 102.503538 
440.000000	 102.306079 
439.000000	 102.116680 
438.000000	 101.951313 
437.000000	 101.840996 
436.000000	 101.779413 
435.000000	 101.743078 
434.000000	 101.740384 
433.000000	 101.791834 
432.000000	 101.898384 
431.000000	 102.047324 
430.000000	 102.223920 
429.000000	 102.387452 
428.000000	 102.489972 
427.000000	 102.537679 
426.000000	 102.601957 
425.000000	 102.733922 
424.000000	 102.898478 
423.000000	 103.014969 
422.000000	 103.051710 
421.000000	 103.063941 
420.000000	 103.151607 
419.000000	 103.367638 
418.000000	 103.648853 
417.000000	 103.855252 
416.000000	 103.907561 
415.000000	 103.865671 
414.000000	 103.843045 
413.000000	 103.865861 
412.000000	 103.866600 
411.000000	 103.789329 
410.000000	 103.683781 
409.000000	 103.647851 
408.000000	 103.666877 
407.000000	 103.591680 
406.000000	 103.367972 
405.000000	 103.131008 
404.000000	 102.969598 
403.000000	 102.823042 
402.000000	 102.739143 
401.000000	 102.854609 
400.000000	 102.975487 

