PE IR       SPECTRUM    SPECTRUM    ASCII       PEDS        1.60        
  -1
10LEN3.ASC
14/01/10
12:10:37.00
14/01/10
12:10:37.00
Admin

400.000000
8









2002,4.07    
MIRTGS : RIGHTBACK : INTERNAL 2
MIR : ON : INTERNAL 2
OPTKBR

0.200000
1
4.000000
STRONG
RATIO
SPECTRUM
UNLOCKED 256

DOUBLE
8
FORWARD
1
0
0


1.000000
RATIO


1
0
TRUE
41620
0
LEFT NOT FITTED RIGHT NOT FITTED 0
NONE
NONE
15600
21.200000
8.970000
41618
TRUE
1 0 8 72 0 0 0 0 

15798.013000






#HDR
-1
-1
#GR
CM-1
%T
0.00002384185791015625
0.0
4000.000000
-1.000000
3601
8
119.705867
8.107757
#DATA
4000.000000	117.070150 
3999.000000	117.072510 
3998.000000	117.077183 
3997.000000	117.083835 
3996.000000	117.089915 
3995.000000	117.094302 
3994.000000	117.098498 
3993.000000	117.104339 
3992.000000	117.112517 
3991.000000	117.122030 
3990.000000	117.129802 
3989.000000	117.133092 
3988.000000	117.133307 
3987.000000	117.135572 
3986.000000	117.142677 
3985.000000	117.152404 
3984.000000	117.161822 
3983.000000	117.169594 
3982.000000	117.173147 
3981.000000	117.170119 
3980.000000	117.164731 
3979.000000	117.165923 
3978.000000	117.177462 
3977.000000	117.194342 
3976.000000	117.208766 
3975.000000	117.215538 
3974.000000	117.212200 
3973.000000	117.200899 
3972.000000	117.189788 
3971.000000	117.186737 
3970.000000	117.191553 
3969.000000	117.198896 
3968.000000	117.205333 
3967.000000	117.209053 
3966.000000	117.207694 
3965.000000	117.202520 
3964.000000	117.199826 
3963.000000	117.201995 
3962.000000	117.203021 
3961.000000	117.198967 
3960.000000	117.194414 
3959.000000	117.194199 
3958.000000	117.196655 
3957.000000	117.199563 
3956.000000	117.205047 
3955.000000	117.214226 
3954.000000	117.224001 
3953.000000	117.232251 
3952.000000	117.240190 
3951.000000	117.247939 
3950.000000	117.251491 
3949.000000	117.247319 
3948.000000	117.238593 
3947.000000	117.233848 
3946.000000	117.237806 
3945.000000	117.244791 
3944.000000	117.245125 
3943.000000	117.236733 
3942.000000	117.226719 
3941.000000	117.222905 
3940.000000	117.228531 
3939.000000	117.242932 
3938.000000	117.263627 
3937.000000	117.287349 
3936.000000	117.311906 
3935.000000	117.336010 
3934.000000	117.356705 
3933.000000	117.369365 
3932.000000	117.373275 
3931.000000	117.373466 
3930.000000	117.375779 
3929.000000	117.383360 
3928.000000	117.397952 
3927.000000	117.418432 
3926.000000	117.437529 
3925.000000	117.448306 
3924.000000	117.453598 
3923.000000	117.461585 
3922.000000	117.472219 
3921.000000	117.479419 
3920.000000	117.483544 
3919.000000	117.490148 
3918.000000	117.497873 
3917.000000	117.500042 
3916.000000	117.497181 
3915.000000	117.496132 
3914.000000	117.499732 
3913.000000	117.506313 
3912.000000	117.515492 
3911.000000	117.527627 
3910.000000	117.540431 
3909.000000	117.553448 
3908.000000	117.568755 
3907.000000	117.582559 
3906.000000	117.584896 
3905.000000	117.572402 
3904.000000	117.553973 
3903.000000	117.540502 
3902.000000	117.534947 
3901.000000	117.535209 
3900.000000	117.540574 
3899.000000	117.551112 
3898.000000	117.564487 
3897.000000	117.578458 
3896.000000	117.595195 
3895.000000	117.620015 
3894.000000	117.649912 
3893.000000	117.667937 
3892.000000	117.660188 
3891.000000	117.635107 
3890.000000	117.615699 
3889.000000	117.614293 
3888.000000	117.625832 
3887.000000	117.640709 
3886.000000	117.652034 
3885.000000	117.653942 
3884.000000	117.646002 
3883.000000	117.634320 
3882.000000	117.622661 
3881.000000	117.608165 
3880.000000	117.591857 
3879.000000	117.583322 
3878.000000	117.589998 
3877.000000	117.606782 
3876.000000	117.623138 
3875.000000	117.634153 
3874.000000	117.640900 
3873.000000	117.643213 
3872.000000	117.637443 
3871.000000	117.623257 
3870.000000	117.608428 
3869.000000	117.604088 
3868.000000	117.613101 
3867.000000	117.626667 
3866.000000	117.633867 
3865.000000	117.633104 
3864.000000	117.631554 
3863.000000	117.634868 
3862.000000	117.640686 
3861.000000	117.645287 
3860.000000	117.652344 
3859.000000	117.668247 
3858.000000	117.689466 
3857.000000	117.701578 
3856.000000	117.690920 
3855.000000	117.656207 
3854.000000	117.611742 
3853.000000	117.581868 
3852.000000	117.583394 
3851.000000	117.608714 
3850.000000	117.634701 
3849.000000	117.650961 
3848.000000	117.667651 
3847.000000	117.693471 
3846.000000	117.718648 
3845.000000	117.726683 
3844.000000	117.715597 
3843.000000	117.698645 
3842.000000	117.688059 
3841.000000	117.681908 
3840.000000	117.672181 
3839.000000	117.660140 
3838.000000	117.654919 
3837.000000	117.659235 
3836.000000	117.664432 
3835.000000	117.661833 
3834.000000	117.650723 
3833.000000	117.636060 
3832.000000	117.625141 
3831.000000	117.624044 
3830.000000	117.631602 
3829.000000	117.638492 
3828.000000	117.637062 
3827.000000	117.629098 
3826.000000	117.620825 
3825.000000	117.615342 
3824.000000	117.612957 
3823.000000	117.614769 
3822.000000	117.620801 
3821.000000	117.629504 
3820.000000	117.640042 
3819.000000	117.647504 
3818.000000	117.638659 
3817.000000	117.605853 
3816.000000	117.564129 
3815.000000	117.539930 
3814.000000	117.541193 
3813.000000	117.553591 
3812.000000	117.564487 
3811.000000	117.575240 
3810.000000	117.587947 
3809.000000	117.595744 
3808.000000	117.591381 
3807.000000	117.577719 
3806.000000	117.565464 
3805.000000	117.562365 
3804.000000	117.565035 
3803.000000	117.561411 
3802.000000	117.544579 
3801.000000	117.525362 
3800.000000	117.522358 
3799.000000	117.536044 
3798.000000	117.545557 
3797.000000	117.536020 
3796.000000	117.516016 
3795.000000	117.499828 
3794.000000	117.490434 
3793.000000	117.486786 
3792.000000	117.492222 
3791.000000	117.505741 
3790.000000	117.518305 
3789.000000	117.524480 
3788.000000	117.528295 
3787.000000	117.533779 
3786.000000	117.537331 
3785.000000	117.533206 
3784.000000	117.523217 
3783.000000	117.517375 
3782.000000	117.524290 
3781.000000	117.540478 
3780.000000	117.552685 
3779.000000	117.550110 
3778.000000	117.533254 
3777.000000	117.511796 
3776.000000	117.495393 
3775.000000	117.488908 
3774.000000	117.493128 
3773.000000	117.505192 
3772.000000	117.517542 
3771.000000	117.520689 
3770.000000	117.511224 
3769.000000	117.495536 
3768.000000	117.483615 
3767.000000	117.478752 
3766.000000	117.475676 
3765.000000	117.469620 
3764.000000	117.464447 
3763.000000	117.466878 
3762.000000	117.474174 
3761.000000	117.476034 
3760.000000	117.467999 
3759.000000	117.455601 
3758.000000	117.446160 
3757.000000	117.443227 
3756.000000	117.449402 
3755.000000	117.462110 
3754.000000	117.469191 
3753.000000	117.458391 
3752.000000	117.433786 
3751.000000	117.413830 
3750.000000	117.414069 
3749.000000	117.435026 
3748.000000	117.462372 
3747.000000	117.475295 
3746.000000	117.464280 
3745.000000	117.447924 
3744.000000	117.458534 
3743.000000	117.504382 
3742.000000	117.562270 
3741.000000	117.613744 
3740.000000	117.665433 
3739.000000	117.723035 
3738.000000	117.771148 
3737.000000	117.792582 
3736.000000	117.789220 
3735.000000	117.774629 
3734.000000	117.759513 
3733.000000	117.750549 
3732.000000	117.752051 
3731.000000	117.763185 
3730.000000	117.778730 
3729.000000	117.794275 
3728.000000	117.807555 
3727.000000	117.816376 
3726.000000	117.817568 
3725.000000	117.807459 
3724.000000	117.786598 
3723.000000	117.759895 
3722.000000	117.730569 
3721.000000	117.696785 
3720.000000	117.656469 
3719.000000	117.613363 
3718.000000	117.573356 
3717.000000	117.540860 
3716.000000	117.521214 
3715.000000	117.521595 
3714.000000	117.544484 
3713.000000	117.581009 
3712.000000	117.615103 
3711.000000	117.633581 
3710.000000	117.633104 
3709.000000	117.621326 
3708.000000	117.612123 
3707.000000	117.615890 
3706.000000	117.631363 
3705.000000	117.647218 
3704.000000	117.650985 
3703.000000	117.637467 
3702.000000	117.610287 
3701.000000	117.581081 
3700.000000	117.562723 
3699.000000	117.557930 
3698.000000	117.555212 
3697.000000	117.544364 
3696.000000	117.529106 
3695.000000	117.517685 
3694.000000	117.509126 
3693.000000	117.500114 
3692.000000	117.492175 
3691.000000	117.481017 
3690.000000	117.452597 
3689.000000	117.402791 
3688.000000	117.347669 
3687.000000	117.303681 
3686.000000	117.270684 
3685.000000	117.241120 
3684.000000	117.214918 
3683.000000	117.197084 
3682.000000	117.189407 
3681.000000	117.190146 
3680.000000	117.196631 
3679.000000	117.204403 
3678.000000	117.203545 
3677.000000	117.182230 
3676.000000	117.140889 
3675.000000	117.099165 
3674.000000	117.078351 
3673.000000	117.078232 
3672.000000	117.080450 
3671.000000	117.072486 
3670.000000	117.055892 
3669.000000	117.036962 
3668.000000	117.020368 
3667.000000	117.009973 
3666.000000	117.005181 
3665.000000	117.000818 
3664.000000	116.996383 
3663.000000	116.998982 
3662.000000	117.013621 
3661.000000	117.034888 
3660.000000	117.055225 
3659.000000	117.070627 
3658.000000	117.073655 
3657.000000	117.057228 
3656.000000	117.030334 
3655.000000	117.014193 
3654.000000	117.018032 
3653.000000	117.038083 
3652.000000	117.074131 
3651.000000	117.116427 
3650.000000	117.126822 
3649.000000	117.078232 
3648.000000	117.005252 
3647.000000	116.967773 
3646.000000	116.975045 
3645.000000	116.990780 
3644.000000	116.997933 
3643.000000	117.010378 
3642.000000	117.033171 
3641.000000	117.055654 
3640.000000	117.075419 
3639.000000	117.097020 
3638.000000	117.117905 
3637.000000	117.134618 
3636.000000	117.153120 
3635.000000	117.179203 
3634.000000	117.208480 
3633.000000	117.235493 
3632.000000	117.257761 
3631.000000	117.269635 
3630.000000	117.267465 
3629.000000	117.262887 
3628.000000	117.274928 
3627.000000	117.305135 
3626.000000	117.335581 
3625.000000	117.353773 
3624.000000	117.364454 
3623.000000	117.374157 
3622.000000	117.375707 
3621.000000	117.356467 
3620.000000	117.317414 
3619.000000	117.277812 
3618.000000	117.256546 
3617.000000	117.253279 
3616.000000	117.252755 
3615.000000	117.244553 
3614.000000	117.231297 
3613.000000	117.221379 
3612.000000	117.223739 
3611.000000	117.244029 
3610.000000	117.277455 
3609.000000	117.309975 
3608.000000	117.333555 
3607.000000	117.353367 
3606.000000	117.375826 
3605.000000	117.399334 
3604.000000	117.421150 
3603.000000	117.443203 
3602.000000	117.466044 
3601.000000	117.484831 
3600.000000	117.495346 
3599.000000	117.497134 
3598.000000	117.489504 
3597.000000	117.473554 
3596.000000	117.457270 
3595.000000	117.448759 
3594.000000	117.444252 
3593.000000	117.435336 
3592.000000	117.422485 
3591.000000	117.409658 
3590.000000	117.392539 
3589.000000	117.368936 
3588.000000	117.350459 
3587.000000	117.347264 
3586.000000	117.350077 
3585.000000	117.344141 
3584.000000	117.329001 
3583.000000	117.310905 
3582.000000	117.287063 
3581.000000	117.252969 
3580.000000	117.213797 
3579.000000	117.178750 
3578.000000	117.150044 
3577.000000	117.125558 
3576.000000	117.104411 
3575.000000	117.087578 
3574.000000	117.076063 
3573.000000	117.072629 
3572.000000	117.079997 
3571.000000	117.096114 
3570.000000	117.109680 
3569.000000	117.103481 
3568.000000	117.069244 
3567.000000	117.019414 
3566.000000	116.978263 
3565.000000	116.960525 
3564.000000	116.963529 
3563.000000	116.975617 
3562.000000	116.983485 
3561.000000	116.977286 
3560.000000	116.957640 
3559.000000	116.936588 
3558.000000	116.922497 
3557.000000	116.912245 
3556.000000	116.903138 
3555.000000	116.902065 
3554.000000	116.913771 
3553.000000	116.929292 
3552.000000	116.936302 
3551.000000	116.933822 
3550.000000	116.929268 
3549.000000	116.931509 
3548.000000	116.949748 
3547.000000	116.986036 
3546.000000	117.025613 
3545.000000	117.047429 
3544.000000	117.046260 
3543.000000	117.031788 
3542.000000	117.009735 
3541.000000	116.980838 
3540.000000	116.956353 
3539.000000	116.952514 
3538.000000	116.968679 
3537.000000	116.985487 
3536.000000	116.985344 
3535.000000	116.967320 
3534.000000	116.941714 
3533.000000	116.920208 
3532.000000	116.908955 
3531.000000	116.906547 
3530.000000	116.906499 
3529.000000	116.905713 
3528.000000	116.909027 
3527.000000	116.925954 
3526.000000	116.960382 
3525.000000	117.003154 
3524.000000	117.032814 
3523.000000	117.028164 
3522.000000	116.986107 
3521.000000	116.928911 
3520.000000	116.886186 
3519.000000	116.870212 
3518.000000	116.872215 
3517.000000	116.881513 
3516.000000	116.897296 
3515.000000	116.919255 
3514.000000	116.935276 
3513.000000	116.927647 
3512.000000	116.888999 
3511.000000	116.830039 
3510.000000	116.772937 
3509.000000	116.735410 
3508.000000	116.722440 
3507.000000	116.730666 
3506.000000	116.760110 
3505.000000	116.810607 
3504.000000	116.866469 
3503.000000	116.897678 
3502.000000	116.885232 
3501.000000	116.843223 
3500.000000	116.807556 
3499.000000	116.799688 
3498.000000	116.807150 
3497.000000	116.799807 
3496.000000	116.763830 
3495.000000	116.709780 
3494.000000	116.649580 
3493.000000	116.584229 
3492.000000	116.517162 
3491.000000	116.463232 
3490.000000	116.434502 
3489.000000	116.427111 
3488.000000	116.424775 
3487.000000	116.403961 
3486.000000	116.342210 
3485.000000	116.238832 
3484.000000	116.129112 
3483.000000	116.059494 
3482.000000	116.044116 
3481.000000	116.051650 
3480.000000	116.033029 
3479.000000	115.958762 
3478.000000	115.833902 
3477.000000	115.686631 
3476.000000	115.546011 
3475.000000	115.425467 
3474.000000	115.329122 
3473.000000	115.263628 
3472.000000	115.237832 
3471.000000	115.247488 
3470.000000	115.269780 
3469.000000	115.277147 
3468.000000	115.255427 
3467.000000	115.205359 
3466.000000	115.137791 
3465.000000	115.068697 
3464.000000	115.020322 
3463.000000	115.014839 
3462.000000	115.058636 
3461.000000	115.132904 
3460.000000	115.206193 
3459.000000	115.260004 
3458.000000	115.300035 
3457.000000	115.344643 
3456.000000	115.406155 
3455.000000	115.485119 
3454.000000	115.573549 
3453.000000	115.663146 
3452.000000	115.749359 
3451.000000	115.834140 
3450.000000	115.922188 
3449.000000	116.016435 
3448.000000	116.110944 
3447.000000	116.193389 
3446.000000	116.253829 
3445.000000	116.294455 
3444.000000	116.329026 
3443.000000	116.370368 
3442.000000	116.420245 
3441.000000	116.473174 
3440.000000	116.531038 
3439.000000	116.600036 
3438.000000	116.674256 
3437.000000	116.735768 
3436.000000	116.775536 
3435.000000	116.798043 
3434.000000	116.807270 
3433.000000	116.805958 
3432.000000	116.806983 
3431.000000	116.822314 
3430.000000	116.842293 
3429.000000	116.846776 
3428.000000	116.833305 
3427.000000	116.815018 
3426.000000	116.798686 
3425.000000	116.785764 
3424.000000	116.784358 
3423.000000	116.802310 
3422.000000	116.831445 
3421.000000	116.854715 
3420.000000	116.862177 
3419.000000	116.855764 
3418.000000	116.844177 
3417.000000	116.839647 
3416.000000	116.852688 
3415.000000	116.882467 
3414.000000	116.916441 
3413.000000	116.940617 
3412.000000	116.950678 
3411.000000	116.952109 
3410.000000	116.951465 
3409.000000	116.948938 
3408.000000	116.942214 
3407.000000	116.933941 
3406.000000	116.932034 
3405.000000	116.941356 
3404.000000	116.961169 
3403.000000	116.989088 
3402.000000	117.021083 
3401.000000	117.048764 
3400.000000	117.062878 
3399.000000	117.061686 
3398.000000	117.051434 
3397.000000	117.041039 
3396.000000	117.038559 
3395.000000	117.048692 
3394.000000	117.068266 
3393.000000	117.086553 
3392.000000	117.093753 
3391.000000	117.087435 
3390.000000	117.068982 
3389.000000	117.041492 
3388.000000	117.013669 
3387.000000	116.996145 
3386.000000	116.989874 
3385.000000	116.987228 
3384.000000	116.986560 
3383.000000	116.994524 
3382.000000	117.011475 
3381.000000	117.028617 
3380.000000	117.041563 
3379.000000	117.053723 
3378.000000	117.065572 
3377.000000	117.072272 
3376.000000	117.073416 
3375.000000	117.074036 
3374.000000	117.077040 
3373.000000	117.084646 
3372.000000	117.102217 
3371.000000	117.130661 
3370.000000	117.159557 
3369.000000	117.177200 
3368.000000	117.181873 
3367.000000	117.176222 
3366.000000	117.159533 
3365.000000	117.133569 
3364.000000	117.109751 
3363.000000	117.101025 
3362.000000	117.108368 
3361.000000	117.121148 
3360.000000	117.126846 
3359.000000	117.119312 
3358.000000	117.102003 
3357.000000	117.085409 
3356.000000	117.079210 
3355.000000	117.085528 
3354.000000	117.100596 
3353.000000	117.120647 
3352.000000	117.142343 
3351.000000	117.159461 
3350.000000	117.163372 
3349.000000	117.150425 
3348.000000	117.128634 
3347.000000	117.114043 
3346.000000	117.116546 
3345.000000	117.130565 
3344.000000	117.143487 
3343.000000	117.149376 
3342.000000	117.150473 
3341.000000	117.150616 
3340.000000	117.152237 
3339.000000	117.157220 
3338.000000	117.161941 
3337.000000	117.157673 
3336.000000	117.140507 
3335.000000	117.117047 
3334.000000	117.095422 
3333.000000	117.077374 
3332.000000	117.062830 
3331.000000	117.054390 
3330.000000	117.054510 
3329.000000	117.063164 
3328.000000	117.080140 
3327.000000	117.101359 
3326.000000	117.114877 
3325.000000	117.109537 
3324.000000	117.088603 
3323.000000	117.064261 
3322.000000	117.041158 
3321.000000	117.017412 
3320.000000	116.997075 
3319.000000	116.986155 
3318.000000	116.981029 
3317.000000	116.975283 
3316.000000	116.971540 
3315.000000	116.973733 
3314.000000	116.975903 
3313.000000	116.973447 
3312.000000	116.974163 
3311.000000	116.986989 
3310.000000	117.007374 
3309.000000	117.024064 
3308.000000	117.032146 
3307.000000	117.031145 
3306.000000	117.019462 
3305.000000	116.996812 
3304.000000	116.966462 
3303.000000	116.931509 
3302.000000	116.893577 
3301.000000	116.856455 
3300.000000	116.828131 
3299.000000	116.815209 
3298.000000	116.816401 
3297.000000	116.821646 
3296.000000	116.820549 
3295.000000	116.811490 
3294.000000	116.798782 
3293.000000	116.783738 
3292.000000	116.763424 
3291.000000	116.737198 
3290.000000	116.707539 
3289.000000	116.677713 
3288.000000	116.652631 
3287.000000	116.639137 
3286.000000	116.637969 
3285.000000	116.641736 
3284.000000	116.644525 
3283.000000	116.648387 
3282.000000	116.655039 
3281.000000	116.660022 
3280.000000	116.662096 
3279.000000	116.668462 
3278.000000	116.684532 
3277.000000	116.706800 
3276.000000	116.730594 
3275.000000	116.754531 
3274.000000	116.775465 
3273.000000	116.788887 
3272.000000	116.796755 
3271.000000	116.803479 
3270.000000	116.805481 
3269.000000	116.796135 
3268.000000	116.779708 
3267.000000	116.767120 
3266.000000	116.760516 
3265.000000	116.754150 
3264.000000	116.746807 
3263.000000	116.741824 
3262.000000	116.738247 
3261.000000	116.733884 
3260.000000	116.731953 
3259.000000	116.736412 
3258.000000	116.744303 
3257.000000	116.749978 
3256.000000	116.751098 
3255.000000	116.746377 
3254.000000	116.733384 
3253.000000	116.714334 
3252.000000	116.697430 
3251.000000	116.689419 
3250.000000	116.689848 
3249.000000	116.695141 
3248.000000	116.702055 
3247.000000	116.705656 
3246.000000	116.700053 
3245.000000	116.682934 
3244.000000	116.658544 
3243.000000	116.633892 
3242.000000	116.614222 
3241.000000	116.601419 
3240.000000	116.594886 
3239.000000	116.592621 
3238.000000	116.591405 
3237.000000	116.588068 
3236.000000	116.583108 
3235.000000	116.580152 
3234.000000	116.579151 
3233.000000	116.572594 
3232.000000	116.554975 
3231.000000	116.530251 
3230.000000	116.505622 
3229.000000	116.483187 
3228.000000	116.462588 
3227.000000	116.445136 
3226.000000	116.428756 
3225.000000	116.408133 
3224.000000	116.385221 
3223.000000	116.369938 
3222.000000	116.366410 
3221.000000	116.367077 
3220.000000	116.363620 
3219.000000	116.353654 
3218.000000	116.336488 
3217.000000	116.312909 
3216.000000	116.290092 
3215.000000	116.275382 
3214.000000	116.265201 
3213.000000	116.250562 
3212.000000	116.231656 
3211.000000	116.214942 
3210.000000	116.200160 
3209.000000	116.182875 
3208.000000	116.164469 
3207.000000	116.147255 
3206.000000	116.127133 
3205.000000	116.101956 
3204.000000	116.078901 
3203.000000	116.063404 
3202.000000	116.049194 
3201.000000	116.028690 
3200.000000	116.004395 
3199.000000	115.982437 
3198.000000	115.962696 
3197.000000	115.942335 
3196.000000	115.921998 
3195.000000	115.903997 
3194.000000	115.887761 
3193.000000	115.870547 
3192.000000	115.850996 
3191.000000	115.831089 
3190.000000	115.813136 
3189.000000	115.796566 
3188.000000	115.779137 
3187.000000	115.760540 
3186.000000	115.741968 
3185.000000	115.722393 
3184.000000	115.700483 
3183.000000	115.678739 
3182.000000	115.661072 
3181.000000	115.647149 
3180.000000	115.633773 
3179.000000	115.619778 
3178.000000	115.604567 
3177.000000	115.586686 
3176.000000	115.569162 
3175.000000	115.559196 
3174.000000	115.557336 
3173.000000	115.555167 
3172.000000	115.548467 
3171.000000	115.543389 
3170.000000	115.543365 
3169.000000	115.543055 
3168.000000	115.539908 
3167.000000	115.539073 
3166.000000	115.541672 
3165.000000	115.541791 
3164.000000	115.538024 
3163.000000	115.535593 
3162.000000	115.534782 
3161.000000	115.530443 
3160.000000	115.522670 
3159.000000	115.516757 
3158.000000	115.513300 
3157.000000	115.510749 
3156.000000	115.513300 
3155.000000	115.525627 
3154.000000	115.542078 
3153.000000	115.551710 
3152.000000	115.550255 
3151.000000	115.540552 
3150.000000	115.525579 
3149.000000	115.508484 
3148.000000	115.493679 
3147.000000	115.482401 
3146.000000	115.470242 
3145.000000	115.454626 
3144.000000	115.439605 
3143.000000	115.430641 
3142.000000	115.428781 
3141.000000	115.431785 
3140.000000	115.435600 
3139.000000	115.433764 
3138.000000	115.421056 
3137.000000	115.399765 
3136.000000	115.377640 
3135.000000	115.359330 
3134.000000	115.343022 
3133.000000	115.325450 
3132.000000	115.307354 
3131.000000	115.291976 
3130.000000	115.279388 
3129.000000	115.264582 
3128.000000	115.244269 
3127.000000	115.221810 
3126.000000	115.202498 
3125.000000	115.187001 
3124.000000	115.174913 
3123.000000	115.168428 
3122.000000	115.166401 
3121.000000	115.159940 
3120.000000	115.142464 
3119.000000	115.118026 
3118.000000	115.093183 
3117.000000	115.068149 
3116.000000	115.040898 
3115.000000	115.011286 
3114.000000	114.976239 
3113.000000	114.933323 
3112.000000	114.891171 
3111.000000	114.861440 
3110.000000	114.840340 
3109.000000	114.811897 
3108.000000	114.770984 
3107.000000	114.726376 
3106.000000	114.682197 
3105.000000	114.635968 
3104.000000	114.591622 
3103.000000	114.557027 
3102.000000	114.528417 
3101.000000	114.494395 
3100.000000	114.451336 
3099.000000	114.402890 
3098.000000	114.348912 
3097.000000	114.288663 
3096.000000	114.226603 
3095.000000	114.168453 
3094.000000	114.113020 
3093.000000	114.059066 
3092.000000	114.008331 
3091.000000	113.960957 
3090.000000	113.909840 
3089.000000	113.849472 
3088.000000	113.780355 
3087.000000	113.706660 
3086.000000	113.629198 
3085.000000	113.546919 
3084.000000	113.458132 
3083.000000	113.360595 
3082.000000	113.251543 
3081.000000	113.129258 
3080.000000	112.994980 
3079.000000	112.851452 
3078.000000	112.698173 
3077.000000	112.529420 
3076.000000	112.340569 
3075.000000	112.135124 
3074.000000	111.921191 
3073.000000	111.703205 
3072.000000	111.483812 
3071.000000	111.269092 
3070.000000	111.064743 
3069.000000	110.871052 
3068.000000	110.687327 
3067.000000	110.517573 
3066.000000	110.365629 
3065.000000	110.231304 
3064.000000	110.117292 
3063.000000	110.029458 
3062.000000	109.966444 
3061.000000	109.917354 
3060.000000	109.876441 
3059.000000	109.845066 
3058.000000	109.817314 
3057.000000	109.777569 
3056.000000	109.716558 
3055.000000	109.636902 
3054.000000	109.539532 
3053.000000	109.420585 
3052.000000	109.278988 
3051.000000	109.117698 
3050.000000	108.931708 
3049.000000	108.717346 
3048.000000	108.476638 
3047.000000	108.219313 
3046.000000	107.939076 
3045.000000	107.630705 
3044.000000	107.285904 
3043.000000	106.911039 
3042.000000	106.496500 
3041.000000	106.041979 
3040.000000	105.532860 
3039.000000	104.974484 
3038.000000	104.352593 
3037.000000	103.667140 
3036.000000	102.897262 
3035.000000	102.044272 
3034.000000	101.090502 
3033.000000	100.024199 
3032.000000	98.813152  
3031.000000	97.448277  
3030.000000	95.921468  
3029.000000	94.224929  
3028.000000	92.324733  
3027.000000	90.185904  
3026.000000	87.775707  
3025.000000	85.078477  
3024.000000	82.081341  
3023.000000	78.793382  
3022.000000	75.226211  
3021.000000	71.426439  
3020.000000	67.457747  
3019.000000	63.446569  
3018.000000	59.518671  
3017.000000	55.830240  
3016.000000	52.514171  
3015.000000	49.731683  
3014.000000	47.587895  
3013.000000	46.168088  
3012.000000	45.500135  
3011.000000	45.616936  
3010.000000	46.489334  
3009.000000	48.055505  
3008.000000	50.200796  
3007.000000	52.825093  
3006.000000	55.807900  
3005.000000	59.023880  
3004.000000	62.314486  
3003.000000	65.533757  
3002.000000	68.556904  
3001.000000	71.308374  
3000.000000	73.742103  
2999.000000	75.844573  
2998.000000	77.622127  
2997.000000	79.104828  
2996.000000	80.319976  
2995.000000	81.304168  
2994.000000	82.081437  
2993.000000	82.692241  
2992.000000	83.145642  
2991.000000	83.470058  
2990.000000	83.656525  
2989.000000	83.723354  
2988.000000	83.639550  
2987.000000	83.410716  
2986.000000	83.005952  
2985.000000	82.427549  
2984.000000	81.637310  
2983.000000	80.631375  
2982.000000	79.391980  
2981.000000	77.926731  
2980.000000	76.227807  
2979.000000	74.313306  
2978.000000	72.206759  
2977.000000	69.942879  
2976.000000	67.553997  
2975.000000	65.091371  
2974.000000	62.615656  
2973.000000	60.177397  
2972.000000	57.807517  
2971.000000	55.530714  
2970.000000	53.370261  
2969.000000	51.345658  
2968.000000	49.483013  
2967.000000	47.831201  
2966.000000	46.443986  
2965.000000	45.362377  
2964.000000	44.602322  
2963.000000	44.173359  
2962.000000	44.046473  
2961.000000	44.155788  
2960.000000	44.389820  
2959.000000	44.641280  
2958.000000	44.799590  
2957.000000	44.781780  
2956.000000	44.531393  
2955.000000	44.053578  
2954.000000	43.401169  
2953.000000	42.664933  
2952.000000	41.938018  
2951.000000	41.288995  
2950.000000	40.739750  
2949.000000	40.260577  
2948.000000	39.784145  
2947.000000	39.228892  
2946.000000	38.526749  
2945.000000	37.632560  
2944.000000	36.526346  
2943.000000	35.212421  
2942.000000	33.723783  
2941.000000	32.100248  
2940.000000	30.380678  
2939.000000	28.605437  
2938.000000	26.847100  
2937.000000	25.178480  
2936.000000	23.666596  
2935.000000	22.358322  
2934.000000	21.311163  
2933.000000	20.541667  
2932.000000	20.035123  
2931.000000	19.752573  
2930.000000	19.690084  
2929.000000	19.825434  
2928.000000	20.131516  
2927.000000	20.575428  
2926.000000	21.168947  
2925.000000	21.907067  
2924.000000	22.778487  
2923.000000	23.768997  
2922.000000	24.891948  
2921.000000	26.140236  
2920.000000	27.491068  
2919.000000	28.924942  
2918.000000	30.436301  
2917.000000	32.003951  
2916.000000	33.593082  
2915.000000	35.184168  
2914.000000	36.771512  
2913.000000	38.344740  
2912.000000	39.885401  
2911.000000	41.391038  
2910.000000	42.867302  
2909.000000	44.315242  
2908.000000	45.730662  
2907.000000	47.117471  
2906.000000	48.483395  
2905.000000	49.827241  
2904.000000	51.148056  
2903.000000	52.445626  
2902.000000	53.723645  
2901.000000	54.975509  
2900.000000	56.200361  
2899.000000	57.397508  
2898.000000	58.572554  
2897.000000	59.721922  
2896.000000	60.845232  
2895.000000	61.939573  
2894.000000	63.005137  
2893.000000	64.036536  
2892.000000	65.026259  
2891.000000	65.964317  
2890.000000	66.839933  
2889.000000	67.641830  
2888.000000	68.354177  
2887.000000	68.963718  
2886.000000	69.454383  
2885.000000	69.810438  
2884.000000	70.001816  
2883.000000	70.008969  
2882.000000	69.815015  
2881.000000	69.421243  
2880.000000	68.817257  
2879.000000	68.033456  
2878.000000	67.123746  
2877.000000	66.193962  
2876.000000	65.329933  
2875.000000	64.625668  
2874.000000	64.116573  
2873.000000	63.795971  
2872.000000	63.575315  
2871.000000	63.356471  
2870.000000	63.035607  
2869.000000	62.526059  
2868.000000	61.747980  
2867.000000	60.659861  
2866.000000	59.256458  
2865.000000	57.555079  
2864.000000	55.582642  
2863.000000	53.393054  
2862.000000	51.061010  
2861.000000	48.683381  
2860.000000	46.367669  
2859.000000	44.256401  
2858.000000	42.495870  
2857.000000	41.231822  
2856.000000	40.576219  
2855.000000	40.624499  
2854.000000	41.409611  
2853.000000	42.910790  
2852.000000	45.031547  
2851.000000	47.660303  
2850.000000	50.650310  
2849.000000	53.872227  
2848.000000	57.179951  
2847.000000	60.468769  
2846.000000	63.634705  
2845.000000	66.626548  
2844.000000	69.411253  
2843.000000	72.006964  
2842.000000	74.434518  
2841.000000	76.724672  
2840.000000	78.887176  
2839.000000	80.925941  
2838.000000	82.831311  
2837.000000	84.600138  
2836.000000	86.233639  
2835.000000	87.747168  
2834.000000	89.153647  
2833.000000	90.470933  
2832.000000	91.706609  
2831.000000	92.876863  
2830.000000	93.985819  
2829.000000	95.043754  
2828.000000	96.042132  
2827.000000	96.984100  
2826.000000	97.864699  
2825.000000	98.693847  
2824.000000	99.467825  
2823.000000	100.195384 
2822.000000	100.878047 
2821.000000	101.528978 
2820.000000	102.148962 
2819.000000	102.743887 
2818.000000	103.311872 
2817.000000	103.856396 
2816.000000	104.376077 
2815.000000	104.876184 
2814.000000	105.359053 
2813.000000	105.824804 
2812.000000	106.268382 
2811.000000	106.688618 
2810.000000	107.086348 
2809.000000	107.461023 
2808.000000	107.810759 
2807.000000	108.136916 
2806.000000	108.443498 
2805.000000	108.729362 
2804.000000	108.992862 
2803.000000	109.235405 
2802.000000	109.463787 
2801.000000	109.679031 
2800.000000	109.880518 
2799.000000	110.064649 
2798.000000	110.229992 
2797.000000	110.372567 
2796.000000	110.497260 
2795.000000	110.614180 
2794.000000	110.733938 
2793.000000	110.856819 
2792.000000	110.982370 
2791.000000	111.109757 
2790.000000	111.235475 
2789.000000	111.350131 
2788.000000	111.451196 
2787.000000	111.544942 
2786.000000	111.639046 
2785.000000	111.734676 
2784.000000	111.831831 
2783.000000	111.929893 
2782.000000	112.024021 
2781.000000	112.108707 
2780.000000	112.185215 
2779.000000	112.259817 
2778.000000	112.333989 
2777.000000	112.404274 
2776.000000	112.468552 
2775.000000	112.525892 
2774.000000	112.571978 
2773.000000	112.605214 
2772.000000	112.631511 
2771.000000	112.660336 
2770.000000	112.695360 
2769.000000	112.736320 
2768.000000	112.783408 
2767.000000	112.837433 
2766.000000	112.895679 
2765.000000	112.953901 
2764.000000	113.008451 
2763.000000	113.058519 
2762.000000	113.104510 
2761.000000	113.147115 
2760.000000	113.186526 
2759.000000	113.222932 
2758.000000	113.255929 
2757.000000	113.284230 
2756.000000	113.306474 
2755.000000	113.323378 
2754.000000	113.337206 
2753.000000	113.349747 
2752.000000	113.363337 
2751.000000	113.381385 
2750.000000	113.404154 
2749.000000	113.424372 
2748.000000	113.434863 
2747.000000	113.436985 
2746.000000	113.436961 
2745.000000	113.436222 
2744.000000	113.434481 
2743.000000	113.434219 
2742.000000	113.437986 
2741.000000	113.443470 
2740.000000	113.450670 
2739.000000	113.462805 
2738.000000	113.476085 
2737.000000	113.477802 
2736.000000	113.462328 
2735.000000	113.438010 
2734.000000	113.412475 
2733.000000	113.383555 
2732.000000	113.349008 
2731.000000	113.313174 
2730.000000	113.279795 
2729.000000	113.249278 
2728.000000	113.224124 
2727.000000	113.206195 
2726.000000	113.189554 
2725.000000	113.167715 
2724.000000	113.146686 
2723.000000	113.137292 
2722.000000	113.139033 
2721.000000	113.144302 
2720.000000	113.153791 
2719.000000	113.174295 
2718.000000	113.205313 
2717.000000	113.237929 
2716.000000	113.265800 
2715.000000	113.287925 
2714.000000	113.306522 
2713.000000	113.324832 
2712.000000	113.346362 
2711.000000	113.370203 
2710.000000	113.391065 
2709.000000	113.404083 
2708.000000	113.409876 
2707.000000	113.413715 
2706.000000	113.420581 
2705.000000	113.431334 
2704.000000	113.444328 
2703.000000	113.459491 
2702.000000	113.478064 
2701.000000	113.498401 
2700.000000	113.516402 
2699.000000	113.530421 
2698.000000	113.540649 
2697.000000	113.545727 
2696.000000	113.545417 
2695.000000	113.545489 
2694.000000	113.550806 
2693.000000	113.557457 
2692.000000	113.559269 
2691.000000	113.558220 
2690.000000	113.558888 
2689.000000	113.560032 
2688.000000	113.559675 
2687.000000	113.562059 
2686.000000	113.570070 
2685.000000	113.580393 
2684.000000	113.593745 
2683.000000	113.617873 
2682.000000	113.653683 
2681.000000	113.689684 
2680.000000	113.718080 
2679.000000	113.742351 
2678.000000	113.765096 
2677.000000	113.783049 
2676.000000	113.797974 
2675.000000	113.817858 
2674.000000	113.843941 
2673.000000	113.868904 
2672.000000	113.889765 
2671.000000	113.909959 
2670.000000	113.929986 
2669.000000	113.947272 
2668.000000	113.963508 
2667.000000	113.981890 
2666.000000	113.999199 
2665.000000	114.010190 
2664.000000	114.015626 
2663.000000	114.020991 
2662.000000	114.027833 
2661.000000	114.034295 
2660.000000	114.040017 
2659.000000	114.046382 
2658.000000	114.053440 
2657.000000	114.060211 
2656.000000	114.065861 
2655.000000	114.069795 
2654.000000	114.071846 
2653.000000	114.072966 
2652.000000	114.075183 
2651.000000	114.079308 
2650.000000	114.083647 
2649.000000	114.084601 
2648.000000	114.080095 
2647.000000	114.072656 
2646.000000	114.066505 
2645.000000	114.063191 
2644.000000	114.063000 
2643.000000	114.068412 
2642.000000	114.080739 
2641.000000	114.094877 
2640.000000	114.106154 
2639.000000	114.117145 
2638.000000	114.131402 
2637.000000	114.144968 
2636.000000	114.154243 
2635.000000	114.164590 
2634.000000	114.179491 
2633.000000	114.192438 
2632.000000	114.199471 
2631.000000	114.208841 
2630.000000	114.227557 
2629.000000	114.249730 
2628.000000	114.268207 
2627.000000	114.284753 
2626.000000	114.300465 
2625.000000	114.310097 
2624.000000	114.312505 
2623.000000	114.314317 
2622.000000	114.318323 
2621.000000	114.321279 
2620.000000	114.323616 
2619.000000	114.329481 
2618.000000	114.336609 
2617.000000	114.337873 
2616.000000	114.332127 
2615.000000	114.324426 
2614.000000	114.316272 
2613.000000	114.306235 
2612.000000	114.297151 
2611.000000	114.293098 
2610.000000	114.292001 
2609.000000	114.289331 
2608.000000	114.285635 
2607.000000	114.284157 
2606.000000	114.285635 
2605.000000	114.289450 
2604.000000	114.296507 
2603.000000	114.306664 
2602.000000	114.316725 
2601.000000	114.323735 
2600.000000	114.328289 
2599.000000	114.333152 
2598.000000	114.339375 
2597.000000	114.344954 
2596.000000	114.349126 
2595.000000	114.355921 
2594.000000	114.369654 
2593.000000	114.387607 
2592.000000	114.402818 
2591.000000	114.413762 
2590.000000	114.424061 
2589.000000	114.433956 
2588.000000	114.441204 
2587.000000	114.448881 
2586.000000	114.461731 
2585.000000	114.477801 
2584.000000	114.493060 
2583.000000	114.509510 
2582.000000	114.528346 
2581.000000	114.542484 
2580.000000	114.547014 
2579.000000	114.548277 
2578.000000	114.553284 
2577.000000	114.559078 
2576.000000	114.563250 
2575.000000	114.570641 
2574.000000	114.582276 
2573.000000	114.589762 
2572.000000	114.589881 
2571.000000	114.589691 
2570.000000	114.592695 
2569.000000	114.593434 
2568.000000	114.591050 
2567.000000	114.592099 
2566.000000	114.597034 
2565.000000	114.598417 
2564.000000	114.594864 
2563.000000	114.591956 
2562.000000	114.591193 
2561.000000	114.589166 
2560.000000	114.586758 
2559.000000	114.587140 
2558.000000	114.587402 
2557.000000	114.582514 
2556.000000	114.574313 
2555.000000	114.568114 
2554.000000	114.563655 
2553.000000	114.557099 
2552.000000	114.548063 
2551.000000	114.539837 
2550.000000	114.534211 
2549.000000	114.530348 
2548.000000	114.527320 
2547.000000	114.526772 
2546.000000	114.530730 
2545.000000	114.538240 
2544.000000	114.545702 
2543.000000	114.551329 
2542.000000	114.555931 
2541.000000	114.558506 
2540.000000	114.556884 
2539.000000	114.552950 
2538.000000	114.551186 
2537.000000	114.551424 
2536.000000	114.550399 
2535.000000	114.549422 
2534.000000	114.551758 
2533.000000	114.554619 
2532.000000	114.554071 
2531.000000	114.553451 
2530.000000	114.557147 
2529.000000	114.560866 
2528.000000	114.560055 
2527.000000	114.560294 
2526.000000	114.567184 
2525.000000	114.575624 
2524.000000	114.579367 
2523.000000	114.581918 
2522.000000	114.587116 
2521.000000	114.590883 
2520.000000	114.591217 
2519.000000	114.594292 
2518.000000	114.601707 
2517.000000	114.606332 
2516.000000	114.606499 
2515.000000	114.609813 
2514.000000	114.618754 
2513.000000	114.625811 
2512.000000	114.627695 
2511.000000	114.629292 
2510.000000	114.632749 
2509.000000	114.634680 
2508.000000	114.635729 
2507.000000	114.639663 
2506.000000	114.644479 
2505.000000	114.645552 
2504.000000	114.644885 
2503.000000	114.647912 
2502.000000	114.653968 
2501.000000	114.658808 
2500.000000	114.662551 
2499.000000	114.667844 
2498.000000	114.673280 
2497.000000	114.675951 
2496.000000	114.676237 
2495.000000	114.677071 
2494.000000	114.679741 
2493.000000	114.682912 
2492.000000	114.685177 
2491.000000	114.687705 
2490.000000	114.692616 
2489.000000	114.699029 
2488.000000	114.704203 
2487.000000	114.708518 
2486.000000	114.714241 
2485.000000	114.719295 
2484.000000	114.720129 
2483.000000	114.720416 
2482.000000	114.727330 
2481.000000	114.739871 
2480.000000	114.750957 
2479.000000	114.759087 
2478.000000	114.766836 
2477.000000	114.771628 
2476.000000	114.770579 
2475.000000	114.768791 
2474.000000	114.770746 
2473.000000	114.770507 
2472.000000	114.763665 
2471.000000	114.757633 
2470.000000	114.758253 
2469.000000	114.757895 
2468.000000	114.750003 
2467.000000	114.740967 
2466.000000	114.737129 
2465.000000	114.733195 
2464.000000	114.724802 
2463.000000	114.716911 
2462.000000	114.711952 
2461.000000	114.704942 
2460.000000	114.695239 
2459.000000	114.689612 
2458.000000	114.689040 
2457.000000	114.687108 
2456.000000	114.682459 
2455.000000	114.680266 
2454.000000	114.681267 
2453.000000	114.680981 
2452.000000	114.678835 
2451.000000	114.678287 
2450.000000	114.678621 
2449.000000	114.676046 
2448.000000	114.670825 
2447.000000	114.665365 
2446.000000	114.659404 
2445.000000	114.651560 
2444.000000	114.643931 
2443.000000	114.639568 
2442.000000	114.638113 
2441.000000	114.636397 
2440.000000	114.632511 
2439.000000	114.627695 
2438.000000	114.623880 
2437.000000	114.620828 
2436.000000	114.617395 
2435.000000	114.616060 
2434.000000	114.621186 
2433.000000	114.631843 
2432.000000	114.642477 
2431.000000	114.651203 
2430.000000	114.659690 
2429.000000	114.665961 
2428.000000	114.665865 
2427.000000	114.661884 
2426.000000	114.660191 
2425.000000	114.659905 
2424.000000	114.656305 
2423.000000	114.651322 
2422.000000	114.650130 
2421.000000	114.651346 
2420.000000	114.651918 
2419.000000	114.655137 
2418.000000	114.662003 
2417.000000	114.663934 
2416.000000	114.655375 
2415.000000	114.643621 
2414.000000	114.635872 
2413.000000	114.627766 
2412.000000	114.616274 
2411.000000	114.607453 
2410.000000	114.602804 
2409.000000	114.593935 
2408.000000	114.578366 
2407.000000	114.565706 
2406.000000	114.560031 
2405.000000	114.553451 
2404.000000	114.540934 
2403.000000	114.525556 
2402.000000	114.507627 
2401.000000	114.483952 
2400.000000	114.458417 
2399.000000	114.438939 
2398.000000	114.425158 
2397.000000	114.409065 
2396.000000	114.389538 
2395.000000	114.371490 
2394.000000	114.358377 
2393.000000	114.348840 
2392.000000	114.344096 
2391.000000	114.344429 
2390.000000	114.349126 
2389.000000	114.356923 
2388.000000	114.375066 
2387.000000	114.412832 
2386.000000	114.478802 
2385.000000	114.572525 
2384.000000	114.691066 
2383.000000	114.830994 
2382.000000	114.992284 
2381.000000	115.170431 
2380.000000	115.359902 
2379.000000	115.561056 
2378.000000	115.779876 
2377.000000	116.014575 
2376.000000	116.261982 
2375.000000	116.531133 
2374.000000	116.829562 
2373.000000	117.137980 
2372.000000	117.434382 
2371.000000	117.729520 
2370.000000	118.039798 
2369.000000	118.339204 
2368.000000	118.602085 
2367.000000	118.850445 
2366.000000	119.103884 
2365.000000	119.314861 
2364.000000	119.449329 
2363.000000	119.549942 
2362.000000	119.651865 
2361.000000	119.705867 
2360.000000	119.675993 
2359.000000	119.609308 
2358.000000	119.528579 
2357.000000	119.369077 
2356.000000	119.104909 
2355.000000	118.810081 
2354.000000	118.529725 
2353.000000	118.213152 
2352.000000	117.839145 
2351.000000	117.485070 
2350.000000	117.233872 
2349.000000	117.116117 
2348.000000	117.159485 
2347.000000	117.378878 
2346.000000	117.705416 
2345.000000	118.016457 
2344.000000	118.244647 
2343.000000	118.386793 
2342.000000	118.438148 
2341.000000	118.394756 
2340.000000	118.303823 
2339.000000	118.229365 
2338.000000	118.186807 
2337.000000	118.148875 
2336.000000	118.102502 
2335.000000	118.056297 
2334.000000	118.013000 
2333.000000	117.962789 
2332.000000	117.899441 
2331.000000	117.830991 
2330.000000	117.765784 
2329.000000	117.701101 
2328.000000	117.621397 
2327.000000	117.522192 
2326.000000	117.413640 
2325.000000	117.303705 
2324.000000	117.189598 
2323.000000	117.072725 
2322.000000	116.957163 
2321.000000	116.831874 
2320.000000	116.681551 
2319.000000	116.515922 
2318.000000	116.362333 
2317.000000	116.231942 
2316.000000	116.121745 
2315.000000	116.038751 
2314.000000	115.988278 
2313.000000	115.949559 
2312.000000	115.895581 
2311.000000	115.826511 
2310.000000	115.752959 
2309.000000	115.668988 
2308.000000	115.567111 
2307.000000	115.463662 
2306.000000	115.377044 
2305.000000	115.306758 
2304.000000	115.248298 
2303.000000	115.208506 
2302.000000	115.183138 
2301.000000	115.151572 
2300.000000	115.105819 
2299.000000	115.062236 
2298.000000	115.030431 
2297.000000	115.000247 
2296.000000	114.964747 
2295.000000	114.930987 
2294.000000	114.901471 
2293.000000	114.868593 
2292.000000	114.831042 
2291.000000	114.796900 
2290.000000	114.768648 
2289.000000	114.739894 
2288.000000	114.707684 
2287.000000	114.674687 
2286.000000	114.642643 
2285.000000	114.613270 
2284.000000	114.593219 
2283.000000	114.589405 
2282.000000	114.602279 
2281.000000	114.625620 
2280.000000	114.652776 
2279.000000	114.679145 
2278.000000	114.702391 
2277.000000	114.721655 
2276.000000	114.737296 
2275.000000	114.751625 
2274.000000	114.766144 
2273.000000	114.777922 
2272.000000	114.783382 
2271.000000	114.786028 
2270.000000	114.792108 
2269.000000	114.798307 
2268.000000	114.796042 
2267.000000	114.787268 
2266.000000	114.781785 
2265.000000	114.779067 
2264.000000	114.771199 
2263.000000	114.760184 
2262.000000	114.753818 
2261.000000	114.747977 
2260.000000	114.734506 
2259.000000	114.719700 
2258.000000	114.712595 
2257.000000	114.706110 
2256.000000	114.691448 
2255.000000	114.676618 
2254.000000	114.670586 
2253.000000	114.664721 
2252.000000	114.650273 
2251.000000	114.635968 
2250.000000	114.630365 
2249.000000	114.625811 
2248.000000	114.614820 
2247.000000	114.604282 
2246.000000	114.599776 
2245.000000	114.595341 
2244.000000	114.587712 
2243.000000	114.583325 
2242.000000	114.584159 
2241.000000	114.584040 
2240.000000	114.582467 
2239.000000	114.585542 
2238.000000	114.592647 
2237.000000	114.596414 
2236.000000	114.596486 
2235.000000	114.597964 
2234.000000	114.600062 
2233.000000	114.598608 
2232.000000	114.596772 
2231.000000	114.600920 
2230.000000	114.609670 
2229.000000	114.616513 
2228.000000	114.619493 
2227.000000	114.621686 
2226.000000	114.624214 
2225.000000	114.624381 
2224.000000	114.620566 
2223.000000	114.616465 
2222.000000	114.617228 
2221.000000	114.621233 
2220.000000	114.621090 
2219.000000	114.615464 
2218.000000	114.610600 
2217.000000	114.607834 
2216.000000	114.601683 
2215.000000	114.593219 
2214.000000	114.589834 
2213.000000	114.590287 
2212.000000	114.585781 
2211.000000	114.576745 
2210.000000	114.570760 
2209.000000	114.565587 
2208.000000	114.553594 
2207.000000	114.539241 
2206.000000	114.531898 
2205.000000	114.527606 
2204.000000	114.518070 
2203.000000	114.508605 
2202.000000	114.507055 
2201.000000	114.506912 
2200.000000	114.500761 
2199.000000	114.496135 
2198.000000	114.498519 
2197.000000	114.496684 
2196.000000	114.482831 
2195.000000	114.467573 
2194.000000	114.459586 
2193.000000	114.451217 
2192.000000	114.438223 
2191.000000	114.429378 
2190.000000	114.426827 
2189.000000	114.419507 
2188.000000	114.404559 
2187.000000	114.392280 
2186.000000	114.384794 
2185.000000	114.373254 
2184.000000	114.356756 
2183.000000	114.344167 
2182.000000	114.335870 
2181.000000	114.323091 
2180.000000	114.304256 
2179.000000	114.286684 
2178.000000	114.272928 
2177.000000	114.258408 
2176.000000	114.240550 
2175.000000	114.221763 
2174.000000	114.204668 
2173.000000	114.189910 
2172.000000	114.177536 
2171.000000	114.168143 
2170.000000	114.161586 
2169.000000	114.153981 
2168.000000	114.140939 
2167.000000	114.125514 
2166.000000	114.116668 
2165.000000	114.116239 
2164.000000	114.117074 
2163.000000	114.116382 
2162.000000	114.119124 
2161.000000	114.124584 
2160.000000	114.126110 
2159.000000	114.125657 
2158.000000	114.130997 
2157.000000	114.138484 
2156.000000	114.138627 
2155.000000	114.136099 
2154.000000	114.141798 
2153.000000	114.150023 
2152.000000	114.147877 
2151.000000	114.140462 
2150.000000	114.141035 
2149.000000	114.146351 
2148.000000	114.146161 
2147.000000	114.144730 
2146.000000	114.148354 
2145.000000	114.148759 
2144.000000	114.139938 
2143.000000	114.133548 
2142.000000	114.136314 
2141.000000	114.135575 
2140.000000	114.124035 
2139.000000	114.114570 
2138.000000	114.114785 
2137.000000	114.113402 
2136.000000	114.104771 
2135.000000	114.099097 
2134.000000	114.100003 
2133.000000	114.097189 
2132.000000	114.088439 
2131.000000	114.084100 
2130.000000	114.086008 
2129.000000	114.083790 
2128.000000	114.073801 
2127.000000	114.063501 
2126.000000	114.056825 
2125.000000	114.049530 
2124.000000	114.038634 
2123.000000	114.026212 
2122.000000	114.014530 
2121.000000	114.003443 
2120.000000	113.992500 
2119.000000	113.982725 
2118.000000	113.975095 
2117.000000	113.967466 
2116.000000	113.956475 
2115.000000	113.943815 
2114.000000	113.935184 
2113.000000	113.929080 
2112.000000	113.915967 
2111.000000	113.894581 
2110.000000	113.875174 
2109.000000	113.862156 
2108.000000	113.848805 
2107.000000	113.834309 
2106.000000	113.825464 
2105.000000	113.818621 
2104.000000	113.802766 
2103.000000	113.781309 
2102.000000	113.767004 
2101.000000	113.756346 
2100.000000	113.736176 
2099.000000	113.710355 
2098.000000	113.691830 
2097.000000	113.675761 
2096.000000	113.650178 
2095.000000	113.621878 
2094.000000	113.603115 
2093.000000	113.586854 
2092.000000	113.562083 
2091.000000	113.536167 
2090.000000	113.517189 
2089.000000	113.495278 
2088.000000	113.463449 
2087.000000	113.434481 
2086.000000	113.416790 
2085.000000	113.398194 
2084.000000	113.370108 
2083.000000	113.342928 
2082.000000	113.323807 
2081.000000	113.304567 
2080.000000	113.281202 
2079.000000	113.262152 
2078.000000	113.249659 
2077.000000	113.234853 
2076.000000	113.215112 
2075.000000	113.198184 
2074.000000	113.187289 
2073.000000	113.177299 
2072.000000	113.166213 
2071.000000	113.156914 
2070.000000	113.149142 
2069.000000	113.139462 
2068.000000	113.127636 
2067.000000	113.116693 
2066.000000	113.107442 
2065.000000	113.097023 
2064.000000	113.083148 
2063.000000	113.067793 
2062.000000	113.055181 
2061.000000	113.044643 
2060.000000	113.030624 
2059.000000	113.011980 
2058.000000	112.993717 
2057.000000	112.976169 
2056.000000	112.953662 
2055.000000	112.928295 
2054.000000	112.909412 
2053.000000	112.894797 
2052.000000	112.872600 
2051.000000	112.844252 
2050.000000	112.822246 
2049.000000	112.805104 
2048.000000	112.781095 
2047.000000	112.754988 
2046.000000	112.740993 
2045.000000	112.733578 
2044.000000	112.717437 
2043.000000	112.698650 
2042.000000	112.691640 
2041.000000	112.689328 
2040.000000	112.678432 
2039.000000	112.669897 
2038.000000	112.678432 
2037.000000	112.694907 
2036.000000	112.706804 
2035.000000	112.723398 
2034.000000	112.752437 
2033.000000	112.779903 
2032.000000	112.795734 
2031.000000	112.813591 
2030.000000	112.843084 
2029.000000	112.872123 
2028.000000	112.892222 
2027.000000	112.913227 
2026.000000	112.939858 
2025.000000	112.961816 
2024.000000	112.974882 
2023.000000	112.988495 
2022.000000	113.006663 
2021.000000	113.022613 
2020.000000	113.034415 
2019.000000	113.047838 
2018.000000	113.063836 
2017.000000	113.076782 
2016.000000	113.084793 
2015.000000	113.092589 
2014.000000	113.103461 
2013.000000	113.115406 
2012.000000	113.124346 
2011.000000	113.130617 
2010.000000	113.138175 
2009.000000	113.147616 
2008.000000	113.153934 
2007.000000	113.156723 
2006.000000	113.162732 
2005.000000	113.173174 
2004.000000	113.179421 
2003.000000	113.180446 
2002.000000	113.186454 
2001.000000	113.198256 
2000.000000	113.204097 
1999.000000	113.204216 
1998.000000	113.211035 
1997.000000	113.222002 
1996.000000	113.222217 
1995.000000	113.216400 
1994.000000	113.222169 
1993.000000	113.234353 
1992.000000	113.232636 
1991.000000	113.220572 
1990.000000	113.217258 
1989.000000	113.219261 
1988.000000	113.211393 
1987.000000	113.202118 
1986.000000	113.207483 
1985.000000	113.217020 
1984.000000	113.214111 
1983.000000	113.208341 
1982.000000	113.213562 
1981.000000	113.219618 
1980.000000	113.215255 
1979.000000	113.211846 
1978.000000	113.217663 
1977.000000	113.218617 
1976.000000	113.207173 
1975.000000	113.198733 
1974.000000	113.202428 
1973.000000	113.205599 
1972.000000	113.200521 
1971.000000	113.197898 
1970.000000	113.203501 
1969.000000	113.207364 
1968.000000	113.202667 
1967.000000	113.195085 
1966.000000	113.189601 
1965.000000	113.183999 
1964.000000	113.177347 
1963.000000	113.173198 
1962.000000	113.173389 
1961.000000	113.174867 
1960.000000	113.173961 
1959.000000	113.170862 
1958.000000	113.169217 
1957.000000	113.169193 
1956.000000	113.165855 
1955.000000	113.158345 
1954.000000	113.153624 
1953.000000	113.153433 
1952.000000	113.149523 
1951.000000	113.140296 
1950.000000	113.136339 
1949.000000	113.139152 
1948.000000	113.136506 
1947.000000	113.128399 
1946.000000	113.130545 
1945.000000	113.143277 
1944.000000	113.147640 
1943.000000	113.140678 
1942.000000	113.139319 
1941.000000	113.145422 
1940.000000	113.144803 
1939.000000	113.140797 
1938.000000	113.149142 
1937.000000	113.162636 
1936.000000	113.162803 
1935.000000	113.158631 
1934.000000	113.168978 
1933.000000	113.184046 
1932.000000	113.185667 
1931.000000	113.185787 
1930.000000	113.200688 
1929.000000	113.214540 
1928.000000	113.210225 
1927.000000	113.205051 
1926.000000	113.217639 
1925.000000	113.232302 
1924.000000	113.230967 
1923.000000	113.224864 
1922.000000	113.226485 
1921.000000	113.225913 
1920.000000	113.218045 
1919.000000	113.216400 
1918.000000	113.223171 
1917.000000	113.220906 
1916.000000	113.205289 
1915.000000	113.192987 
1914.000000	113.190913 
1913.000000	113.188314 
1912.000000	113.180899 
1911.000000	113.175845 
1910.000000	113.172388 
1909.000000	113.159894 
1908.000000	113.137054 
1907.000000	113.114905 
1906.000000	113.100910 
1905.000000	113.089823 
1904.000000	113.072037 
1903.000000	113.048005 
1902.000000	113.027334 
1901.000000	113.012123 
1900.000000	112.992024 
1899.000000	112.965774 
1898.000000	112.948060 
1897.000000	112.941145 
1896.000000	112.924623 
1895.000000	112.890839 
1894.000000	112.860250 
1893.000000	112.843227 
1892.000000	112.823343 
1891.000000	112.793922 
1890.000000	112.768793 
1889.000000	112.745857 
1888.000000	112.707686 
1887.000000	112.664151 
1886.000000	112.642431 
1885.000000	112.635040 
1884.000000	112.612295 
1883.000000	112.581133 
1882.000000	112.569952 
1881.000000	112.568712 
1880.000000	112.549424 
1879.000000	112.525367 
1878.000000	112.524008 
1877.000000	112.529659 
1876.000000	112.516283 
1875.000000	112.502264 
1874.000000	112.511610 
1873.000000	112.525749 
1872.000000	112.526082 
1871.000000	112.536406 
1870.000000	112.570810 
1869.000000	112.596130 
1868.000000	112.588691 
1867.000000	112.574505 
1866.000000	112.577295 
1865.000000	112.582468 
1864.000000	112.579536 
1863.000000	112.586355 
1862.000000	112.610459 
1861.000000	112.632799 
1860.000000	112.643456 
1859.000000	112.655401 
1858.000000	112.675714 
1857.000000	112.694835 
1856.000000	112.706661 
1855.000000	112.717604 
1854.000000	112.732958 
1853.000000	112.747931 
1852.000000	112.755107 
1851.000000	112.757372 
1850.000000	112.765717 
1849.000000	112.780141 
1848.000000	112.784504 
1847.000000	112.774920 
1846.000000	112.769842 
1845.000000	112.771606 
1844.000000	112.751531 
1843.000000	112.703800 
1842.000000	112.666296 
1841.000000	112.656497 
1840.000000	112.642240 
1839.000000	112.609815 
1838.000000	112.589049 
1837.000000	112.584042 
1836.000000	112.558007 
1835.000000	112.512969 
1834.000000	112.494802 
1833.000000	112.503051 
1832.000000	112.489414 
1831.000000	112.450289 
1830.000000	112.423348 
1829.000000	112.399482 
1828.000000	112.343978 
1827.000000	112.283635 
1826.000000	112.261867 
1825.000000	112.242293 
1824.000000	112.171673 
1823.000000	112.085700 
1822.000000	112.041735 
1821.000000	112.008619 
1820.000000	111.936330 
1819.000000	111.854553 
1818.000000	111.803507 
1817.000000	111.748123 
1816.000000	111.655592 
1815.000000	111.565589 
1814.000000	111.509823 
1813.000000	111.446785 
1812.000000	111.343932 
1811.000000	111.232542 
1810.000000	111.137461 
1809.000000	111.032581 
1808.000000	110.903000 
1807.000000	110.774564 
1806.000000	110.661268 
1805.000000	110.544657 
1804.000000	110.416102 
1803.000000	110.286974 
1802.000000	110.154557 
1801.000000	109.999537 
1800.000000	109.816312 
1799.000000	109.626150 
1798.000000	109.451842 
1797.000000	109.292483 
1796.000000	109.125161 
1795.000000	108.942914 
1794.000000	108.754897 
1793.000000	108.543777 
1792.000000	108.260869 
1791.000000	107.921552 
1790.000000	107.619476 
1789.000000	107.398772 
1788.000000	107.180404 
1787.000000	106.899285 
1786.000000	106.588053 
1785.000000	106.279659 
1784.000000	105.933523 
1783.000000	105.550575 
1782.000000	105.184864 
1781.000000	104.801511 
1780.000000	104.304075 
1779.000000	103.746676 
1778.000000	103.268289 
1777.000000	102.823948 
1776.000000	102.280116 
1775.000000	101.686215 
1774.000000	101.108956 
1773.000000	100.327944 
1772.000000	99.181699  
1771.000000	97.947049  
1770.000000	96.978282  
1769.000000	96.075725  
1768.000000	94.852137  
1767.000000	93.364953  
1766.000000	92.024135  
1765.000000	90.832877  
1764.000000	89.425396  
1763.000000	87.468981  
1762.000000	84.987449  
1761.000000	82.224297  
1760.000000	79.531955  
1759.000000	76.913428  
1758.000000	73.734593  
1757.000000	69.370961  
1756.000000	64.255881  
1755.000000	59.477186  
1754.000000	55.220460  
1753.000000	50.449991  
1752.000000	44.325494  
1751.000000	37.168240  
1750.000000	29.891633  
1749.000000	23.268222  
1748.000000	17.940378  
1747.000000	14.188814  
1746.000000	11.624813  
1745.000000	9.705233   
1744.000000	8.493876   
1743.000000	8.107757   
1742.000000	8.242988   
1741.000000	8.850312   
1740.000000	10.612916  
1739.000000	13.479804  
1738.000000	16.234755  
1737.000000	18.368005  
1736.000000	21.544170  
1735.000000	27.581834  
1734.000000	35.991048  
1733.000000	44.312167  
1732.000000	50.789284  
1731.000000	55.658102  
1730.000000	60.215783  
1729.000000	65.019869  
1728.000000	69.503331  
1727.000000	73.060894  
1726.000000	75.942635  
1725.000000	78.741645  
1724.000000	81.578302  
1723.000000	84.110808  
1722.000000	86.074638  
1721.000000	87.525153  
1720.000000	88.786602  
1719.000000	90.202784  
1718.000000	91.873192  
1717.000000	93.512248  
1716.000000	94.816660  
1715.000000	95.711302  
1714.000000	96.359443  
1713.000000	96.905684  
1712.000000	97.419166  
1711.000000	97.887039  
1710.000000	98.311805  
1709.000000	98.682713  
1708.000000	99.005460  
1707.000000	99.274945  
1706.000000	99.494671  
1705.000000	99.642682  
1704.000000	99.707055  
1703.000000	99.721693  
1702.000000	99.789857  
1701.000000	99.993610  
1700.000000	100.305390 
1699.000000	100.628900 
1698.000000	100.953388 
1697.000000	101.369571 
1696.000000	101.927161 
1695.000000	102.525424 
1694.000000	102.995610 
1693.000000	103.290200 
1692.000000	103.539729 
1691.000000	103.875017 
1690.000000	104.253911 
1689.000000	104.555630 
1688.000000	104.774522 
1687.000000	104.985833 
1686.000000	105.197930 
1685.000000	105.396318 
1684.000000	105.629920 
1683.000000	105.904126 
1682.000000	106.100678 
1681.000000	106.173372 
1680.000000	106.244850 
1679.000000	106.393671 
1678.000000	106.523442 
1677.000000	106.590771 
1676.000000	106.697678 
1675.000000	106.870913 
1674.000000	106.980347 
1673.000000	106.989645 
1672.000000	107.017087 
1671.000000	107.089710 
1670.000000	107.079839 
1669.000000	106.945252 
1668.000000	106.795477 
1667.000000	106.689953 
1666.000000	106.561589 
1665.000000	106.351709 
1664.000000	106.050491 
1663.000000	105.633068 
1662.000000	105.104017 
1661.000000	104.573726 
1660.000000	104.156303 
1659.000000	103.841686 
1658.000000	103.561305 
1657.000000	103.317427 
1656.000000	103.152370 
1655.000000	103.067135 
1654.000000	103.033089 
1653.000000	103.049826 
1652.000000	103.118491 
1651.000000	103.219270 
1650.000000	103.335118 
1649.000000	103.498315 
1648.000000	103.753995 
1647.000000	104.092907 
1646.000000	104.428911 
1645.000000	104.691791 
1644.000000	104.925608 
1643.000000	105.252861 
1642.000000	105.726265 
1641.000000	106.277894 
1640.000000	106.817936 
1639.000000	107.325005 
1638.000000	107.825279 
1637.000000	108.338499 
1636.000000	108.849406 
1635.000000	109.290742 
1634.000000	109.576225 
1633.000000	109.703755 
1632.000000	109.783220 
1631.000000	109.905552 
1630.000000	110.040140 
1629.000000	110.133552 
1628.000000	110.208344 
1627.000000	110.296726 
1626.000000	110.361218 
1625.000000	110.385823 
1624.000000	110.426497 
1623.000000	110.509061 
1622.000000	110.570192 
1621.000000	110.584592 
1620.000000	110.617542 
1619.000000	110.708236 
1618.000000	110.805535 
1617.000000	110.868024 
1616.000000	110.913372 
1615.000000	110.951185 
1614.000000	110.963344 
1613.000000	110.963487 
1612.000000	110.990476 
1611.000000	111.039972 
1610.000000	111.073851 
1609.000000	111.087703 
1608.000000	111.106467 
1607.000000	111.130523 
1606.000000	111.141681 
1605.000000	111.143946 
1604.000000	111.155915 
1603.000000	111.175060 
1602.000000	111.183738 
1601.000000	111.177492 
1600.000000	111.172771 
1599.000000	111.182737 
1598.000000	111.198735 
1597.000000	111.201000 
1596.000000	111.189603 
1595.000000	111.183118 
1594.000000	111.181569 
1593.000000	111.165046 
1592.000000	111.137413 
1591.000000	111.125469 
1590.000000	111.124730 
1589.000000	111.105179 
1588.000000	111.075067 
1587.000000	111.069893 
1586.000000	111.080431 
1585.000000	111.069512 
1584.000000	111.050295 
1583.000000	111.058735 
1582.000000	111.072683 
1581.000000	111.057257 
1580.000000	111.050224 
1579.000000	111.095070 
1578.000000	111.143851 
1577.000000	111.135339 
1576.000000	111.102962 
1575.000000	111.098074 
1574.000000	111.094927 
1573.000000	111.069798 
1572.000000	111.074423 
1571.000000	111.131739 
1570.000000	111.167788 
1569.000000	111.138796 
1568.000000	111.106371 
1567.000000	111.114120 
1566.000000	111.117553 
1565.000000	111.094594 
1564.000000	111.091041 
1563.000000	111.116194 
1562.000000	111.129307 
1561.000000	111.145472 
1560.000000	111.210489 
1559.000000	111.276030 
1558.000000	111.246609 
1557.000000	111.141920 
1556.000000	111.070513 
1555.000000	111.061692 
1554.000000	111.051607 
1553.000000	111.009359 
1552.000000	110.971760 
1551.000000	110.963344 
1550.000000	110.955929 
1549.000000	110.917592 
1548.000000	110.872650 
1547.000000	110.874223 
1546.000000	110.912394 
1545.000000	110.916948 
1544.000000	110.891842 
1543.000000	110.924029 
1542.000000	110.999202 
1541.000000	110.975384 
1540.000000	110.824131 
1539.000000	110.698437 
1538.000000	110.677599 
1537.000000	110.668897 
1536.000000	110.624694 
1535.000000	110.613608 
1534.000000	110.627436 
1533.000000	110.567092 
1532.000000	110.451412 
1531.000000	110.401105 
1530.000000	110.413074 
1529.000000	110.387873 
1528.000000	110.340833 
1527.000000	110.346460 
1526.000000	110.351133 
1525.000000	110.281085 
1524.000000	110.220146 
1523.000000	110.245108 
1522.000000	110.242390 
1521.000000	110.115838 
1520.000000	109.988284 
1519.000000	109.980010 
1518.000000	109.986281 
1517.000000	109.882402 
1516.000000	109.744191 
1515.000000	109.683156 
1514.000000	109.656739 
1513.000000	109.592795 
1512.000000	109.529542 
1511.000000	109.518599 
1510.000000	109.523272 
1509.000000	109.487390 
1508.000000	109.398388 
1507.000000	109.257817 
1506.000000	109.074378 
1505.000000	108.894562 
1504.000000	108.775401 
1503.000000	108.719158 
1502.000000	108.674168 
1501.000000	108.595633 
1500.000000	108.493185 
1499.000000	108.402562 
1498.000000	108.311915 
1497.000000	108.154797 
1496.000000	107.928347 
1495.000000	107.732033 
1494.000000	107.625818 
1493.000000	107.527852 
1492.000000	107.367229 
1491.000000	107.189011 
1490.000000	107.016849 
1489.000000	106.754803 
1488.000000	106.387162 
1487.000000	106.050229 
1486.000000	105.809998 
1485.000000	105.532956 
1484.000000	105.184864 
1483.000000	104.863786 
1482.000000	104.512405 
1481.000000	103.971123 
1480.000000	103.378653 
1479.000000	102.937340 
1478.000000	102.409029 
1477.000000	101.496362 
1476.000000	100.502038 
1475.000000	99.645519  
1474.000000	98.134422  
1473.000000	95.086431  
1472.000000	91.024422  
1471.000000	87.221264  
1470.000000	84.022951  
1469.000000	80.938100  
1468.000000	77.867388  
1467.000000	75.083255  
1466.000000	72.575163  
1465.000000	70.346617  
1464.000000	68.839716  
1463.000000	68.310213  
1462.000000	68.336796  
1461.000000	68.445014  
1460.000000	68.634533  
1459.000000	68.925404  
1458.000000	69.094324  
1457.000000	69.150805  
1456.000000	69.463300  
1455.000000	70.150923  
1454.000000	70.913195  
1453.000000	71.551394  
1452.000000	72.167229  
1451.000000	72.748398  
1450.000000	73.054075  
1449.000000	73.004746  
1448.000000	72.744560  
1447.000000	72.360229  
1446.000000	71.813416  
1445.000000	71.137261  
1444.000000	70.318293  
1443.000000	69.204354  
1442.000000	67.692422  
1441.000000	65.946054  
1440.000000	64.124679  
1439.000000	62.194967  
1438.000000	60.180926  
1437.000000	58.513784  
1436.000000	57.876038  
1435.000000	58.673381  
1434.000000	60.768985  
1433.000000	63.729810  
1432.000000	67.256093  
1431.000000	71.212744  
1430.000000	75.290346  
1429.000000	78.912925  
1428.000000	81.625771  
1427.000000	83.465313  
1426.000000	84.809780  
1425.000000	85.958695  
1424.000000	86.920285  
1423.000000	87.575697  
1422.000000	87.946939  
1421.000000	88.277244  
1420.000000	88.833475  
1419.000000	89.717626  
1418.000000	90.822911  
1417.000000	92.006969  
1416.000000	93.165826  
1415.000000	94.314789  
1414.000000	95.474648  
1413.000000	96.641373  
1412.000000	97.715544  
1411.000000	98.606562  
1410.000000	99.267053  
1409.000000	99.714159  
1408.000000	99.954414  
1407.000000	99.949288  
1406.000000	99.631714  
1405.000000	98.982644  
1404.000000	98.083353  
1403.000000	97.085738  
1402.000000	96.131062  
1401.000000	95.288753  
1400.000000	94.586706  
1399.000000	94.057726  
1398.000000	93.718194  
1397.000000	93.514680  
1396.000000	93.348097  
1395.000000	93.172335  
1394.000000	93.077540  
1393.000000	93.225789  
1392.000000	93.688440  
1391.000000	94.377613  
1390.000000	95.201659  
1389.000000	96.171569  
1388.000000	97.253489  
1387.000000	98.219490  
1386.000000	98.809528  
1385.000000	98.974609  
1384.000000	98.801398  
1383.000000	98.331165  
1382.000000	97.579503  
1381.000000	96.636247  
1380.000000	95.600342  
1379.000000	94.516873  
1378.000000	93.453407  
1377.000000	92.490792  
1376.000000	91.595816  
1375.000000	90.652751  
1374.000000	89.684081  
1373.000000	88.866996  
1372.000000	88.303422  
1371.000000	87.905883  
1370.000000	87.547898  
1369.000000	87.179923  
1368.000000	86.796021  
1367.000000	86.387610  
1366.000000	85.977625  
1365.000000	85.595417  
1364.000000	85.252523  
1363.000000	84.966778  
1362.000000	84.818387  
1361.000000	84.870386  
1360.000000	85.108304  
1359.000000	85.455346  
1358.000000	85.869789  
1357.000000	86.332583  
1356.000000	86.826372  
1355.000000	87.315273  
1354.000000	87.786793  
1353.000000	88.247609  
1352.000000	88.718628  
1351.000000	89.214801  
1350.000000	89.746069  
1349.000000	90.313386  
1348.000000	90.916180  
1347.000000	91.547942  
1346.000000	92.196416  
1345.000000	92.843961  
1344.000000	93.466544  
1343.000000	94.031143  
1342.000000	94.518780  
1341.000000	94.936490  
1340.000000	95.288085  
1339.000000	95.539021  
1338.000000	95.661067  
1337.000000	95.681476  
1336.000000	95.660161  
1335.000000	95.613956  
1334.000000	95.525312  
1333.000000	95.380711  
1332.000000	95.178961  
1331.000000	94.898247  
1330.000000	94.521427  
1329.000000	94.058227  
1328.000000	93.541884  
1327.000000	92.995381  
1326.000000	92.443180  
1325.000000	91.915750  
1324.000000	91.449427  
1323.000000	91.067528  
1322.000000	90.784645  
1321.000000	90.604209  
1320.000000	90.518975  
1319.000000	90.508174  
1318.000000	90.542483  
1317.000000	90.591478  
1316.000000	90.630030  
1315.000000	90.633583  
1314.000000	90.576362  
1313.000000	90.441346  
1312.000000	90.240740  
1311.000000	90.012764  
1310.000000	89.806604  
1309.000000	89.666819  
1308.000000	89.625453  
1307.000000	89.683198  
1306.000000	89.804577  
1305.000000	89.945435  
1304.000000	90.078163  
1303.000000	90.193629  
1302.000000	90.280771  
1301.000000	90.338206  
1300.000000	90.370464  
1299.000000	90.385365  
1298.000000	90.376496  
1297.000000	90.343666  
1296.000000	90.292000  
1295.000000	90.224671  
1294.000000	90.129041  
1293.000000	89.988088  
1292.000000	89.783143  
1291.000000	89.489722  
1290.000000	89.080381  
1289.000000	88.541865  
1288.000000	87.885427  
1287.000000	87.139558  
1286.000000	86.340999  
1285.000000	85.526728  
1284.000000	84.733033  
1283.000000	83.989667  
1282.000000	83.320355  
1281.000000	82.735824  
1280.000000	82.236218  
1279.000000	81.806182  
1278.000000	81.414008  
1277.000000	81.016516  
1276.000000	80.577158  
1275.000000	80.080246  
1274.000000	79.521608  
1273.000000	78.909611  
1272.000000	78.271007  
1271.000000	77.652931  
1270.000000	77.090120  
1269.000000	76.593470  
1268.000000	76.164340  
1267.000000	75.808978  
1266.000000	75.526142  
1265.000000	75.303721  
1264.000000	75.133347  
1263.000000	75.004959  
1262.000000	74.886846  
1261.000000	74.731922  
1260.000000	74.511694  
1259.000000	74.216723  
1258.000000	73.839211  
1257.000000	73.368716  
1256.000000	72.819089  
1255.000000	72.211742  
1254.000000	71.563696  
1253.000000	70.882344  
1252.000000	70.196461  
1251.000000	69.535708  
1250.000000	68.926954  
1249.000000	68.391942  
1248.000000	67.970776  
1247.000000	67.696714  
1246.000000	67.585349  
1245.000000	67.632961  
1244.000000	67.833495  
1243.000000	68.167734  
1242.000000	68.606662  
1241.000000	69.121122  
1240.000000	69.694256  
1239.000000	70.309400  
1238.000000	70.947122  
1237.000000	71.588587  
1236.000000	72.220230  
1235.000000	72.826671  
1234.000000	73.389744  
1233.000000	73.892188  
1232.000000	74.324393  
1231.000000	74.679970  
1230.000000	74.954247  
1229.000000	75.136899  
1228.000000	75.224518  
1227.000000	75.214886  
1226.000000	75.115561  
1225.000000	74.925518  
1224.000000	74.659061  
1223.000000	74.329924  
1222.000000	73.959851  
1221.000000	73.544859  
1220.000000	73.089003  
1219.000000	72.589850  
1218.000000	72.054433  
1217.000000	71.470832  
1216.000000	70.843100  
1215.000000	70.175981  
1214.000000	69.473981  
1213.000000	68.724203  
1212.000000	67.927169  
1211.000000	67.089772  
1210.000000	66.208624  
1209.000000	65.264296  
1208.000000	64.252686  
1207.000000	63.181757  
1206.000000	62.053751  
1205.000000	60.866403  
1204.000000	59.649395  
1203.000000	58.446979  
1202.000000	57.295703  
1201.000000	56.225466  
1200.000000	55.297636  
1199.000000	54.581999  
1198.000000	54.126739  
1197.000000	53.966140  
1196.000000	54.137778  
1195.000000	54.666709  
1194.000000	55.527329  
1193.000000	56.671428  
1192.000000	58.037853  
1191.000000	59.547305  
1190.000000	61.078858  
1189.000000	62.500309  
1188.000000	63.695979  
1187.000000	64.568233  
1186.000000	65.039825  
1185.000000	65.063738  
1184.000000	64.641642  
1183.000000	63.811421  
1182.000000	62.637662  
1181.000000	61.198449  
1180.000000	59.590148  
1179.000000	57.921385  
1178.000000	56.295537  
1177.000000	54.788970  
1176.000000	53.460693  
1175.000000	52.370977  
1174.000000	51.569914  
1173.000000	51.077723  
1172.000000	50.891494  
1171.000000	51.016068  
1170.000000	51.439952  
1169.000000	52.137684  
1168.000000	53.069496  
1167.000000	54.230713  
1166.000000	55.592203  
1165.000000	57.115268  
1164.000000	58.742475  
1163.000000	60.459089  
1162.000000	62.233114  
1161.000000	64.028120  
1160.000000	65.803599  
1159.000000	67.554903  
1158.000000	69.272994  
1157.000000	70.945715  
1156.000000	72.568988  
1155.000000	74.154162  
1154.000000	75.695204  
1153.000000	77.167272  
1152.000000	78.549432  
1151.000000	79.831385  
1150.000000	80.991649  
1149.000000	82.003378  
1148.000000	82.852530  
1147.000000	83.542680  
1146.000000	84.072875  
1145.000000	84.452843  
1144.000000	84.709000  
1143.000000	84.884738  
1142.000000	85.010433  
1141.000000	85.126996  
1140.000000	85.279846  
1139.000000	85.517120  
1138.000000	85.853862  
1137.000000	86.303853  
1136.000000	86.871695  
1135.000000	87.552309  
1134.000000	88.308191  
1133.000000	89.106893  
1132.000000	89.924073  
1131.000000	90.733766  
1130.000000	91.497898  
1129.000000	92.193007  
1128.000000	92.810654  
1127.000000	93.335986  
1126.000000	93.749809  
1125.000000	94.055080  
1124.000000	94.278407  
1123.000000	94.439840  
1122.000000	94.556093  
1121.000000	94.653677  
1120.000000	94.762325  
1119.000000	94.879555  
1118.000000	94.986033  
1117.000000	95.063900  
1116.000000	95.100331  
1115.000000	95.066881  
1114.000000	94.940352  
1113.000000	94.719767  
1112.000000	94.418764  
1111.000000	94.046330  
1110.000000	93.617510  
1109.000000	93.165397  
1108.000000	92.732167  
1107.000000	92.355251  
1106.000000	92.069864  
1105.000000	91.910719  
1104.000000	91.901564  
1103.000000	92.042994  
1102.000000	92.313051  
1101.000000	92.674851  
1100.000000	93.085789  
1099.000000	93.499875  
1098.000000	93.875098  
1097.000000	94.183945  
1096.000000	94.426465  
1095.000000	94.617414  
1094.000000	94.772458  
1093.000000	94.904637  
1092.000000	95.036482  
1091.000000	95.191407  
1090.000000	95.378732  
1089.000000	95.600914  
1088.000000	95.859432  
1087.000000	96.159911  
1086.000000	96.491193  
1085.000000	96.848750  
1084.000000	97.224593  
1083.000000	97.606968  
1082.000000	97.962546  
1081.000000	98.262596  
1080.000000	98.488616  
1079.000000	98.617649  
1078.000000	98.618602  
1077.000000	98.471832  
1076.000000	98.175787  
1075.000000	97.722053  
1074.000000	97.102451  
1073.000000	96.345543  
1072.000000	95.535039  
1071.000000	94.781327  
1070.000000	94.198322  
1069.000000	93.882536  
1068.000000	93.874955  
1067.000000	94.129252  
1066.000000	94.547224  
1065.000000	95.043683  
1064.000000	95.570087  
1063.000000	96.096825  
1062.000000	96.608304  
1061.000000	97.110724  
1060.000000	97.611069  
1059.000000	98.105692  
1058.000000	98.587226  
1057.000000	99.064302  
1056.000000	99.538111  
1055.000000	99.992871  
1054.000000	100.402832 
1053.000000	100.753951 
1052.000000	101.036190 
1051.000000	101.237225 
1050.000000	101.350283 
1049.000000	101.380062 
1048.000000	101.341938 
1047.000000	101.252865 
1046.000000	101.130604 
1045.000000	100.988864 
1044.000000	100.834202 
1043.000000	100.669384 
1042.000000	100.497245 
1041.000000	100.327396 
1040.000000	100.168728 
1039.000000	100.024771 
1038.000000	99.883794  
1037.000000	99.734520  
1036.000000	99.568319  
1035.000000	99.376559  
1034.000000	99.139928  
1033.000000	98.844218  
1032.000000	98.490929  
1031.000000	98.082828  
1030.000000	97.615909  
1029.000000	97.091007  
1028.000000	96.530938  
1027.000000	95.957374  
1026.000000	95.385432  
1025.000000	94.835996  
1024.000000	94.346761  
1023.000000	93.942999  
1022.000000	93.629479  
1021.000000	93.405747  
1020.000000	93.275833  
1019.000000	93.229985  
1018.000000	93.247961  
1017.000000	93.322324  
1016.000000	93.457508  
1015.000000	93.648099  
1014.000000	93.878388  
1013.000000	94.146037  
1012.000000	94.456052  
1011.000000	94.803333  
1010.000000	95.170021  
1009.000000	95.547342  
1008.000000	95.926427  
1007.000000	96.290564  
1006.000000	96.619391  
1005.000000	96.907973  
1004.000000	97.155737  
1003.000000	97.358560  
1002.000000	97.512483  
1001.000000	97.625374  
1000.000000	97.708773  
999.000000	 97.771072  
998.000000	 97.819519  
997.000000	 97.863602  
996.000000	 97.908878  
995.000000	 97.954320  
994.000000	 97.998762  
993.000000	 98.047780  
992.000000	 98.111677  
991.000000	 98.198151  
990.000000	 98.308372  
989.000000	 98.442554  
988.000000	 98.607015  
987.000000	 98.810148  
986.000000	 99.052929  
985.000000	 99.329209  
984.000000	 99.633717  
983.000000	 99.958491  
982.000000	 100.288653 
981.000000	 100.606679 
980.000000	 100.903797 
979.000000	 101.171135 
978.000000	 101.397228 
977.000000	 101.579070 
976.000000	 101.732921 
975.000000	 101.876735 
974.000000	 102.017354 
973.000000	 102.161502 
972.000000	 102.322745 
971.000000	 102.507543 
970.000000	 102.708005 
969.000000	 102.923178 
968.000000	 103.159427 
967.000000	 103.409862 
966.000000	 103.651261 
965.000000	 103.873467 
964.000000	 104.081511 
963.000000	 104.270505 
962.000000	 104.424047 
961.000000	 104.539632 
960.000000	 104.629659 
959.000000	 104.696154 
958.000000	 104.732298 
957.000000	 104.740548 
956.000000	 104.730844 
955.000000	 104.698395 
954.000000	 104.635047 
953.000000	 104.542827 
952.000000	 104.430818 
951.000000	 104.294967 
950.000000	 104.129576 
949.000000	 103.936982 
948.000000	 103.726005 
947.000000	 103.498101 
946.000000	 103.255796 
945.000000	 103.007006 
944.000000	 102.762579 
943.000000	 102.529001 
942.000000	 102.314162 
941.000000	 102.127075 
940.000000	 101.973032 
939.000000	 101.849603 
938.000000	 101.752495 
937.000000	 101.678228 
936.000000	 101.623034 
935.000000	 101.578092 
934.000000	 101.531004 
933.000000	 101.471328 
932.000000	 101.396584 
931.000000	 101.306414 
930.000000	 101.198077 
929.000000	 101.067376 
928.000000	 100.917816 
927.000000	 100.752472 
926.000000	 100.572299 
925.000000	 100.379157 
924.000000	 100.185346 
923.000000	 99.996900  
922.000000	 99.810075  
921.000000	 99.621796  
920.000000	 99.444746  
919.000000	 99.289798  
918.000000	 99.158978  
917.000000	 99.056792  
916.000000	 99.000692  
915.000000	 99.002075  
914.000000	 99.058556  
913.000000	 99.165892  
912.000000	 99.322104  
911.000000	 99.512481  
910.000000	 99.713945  
909.000000	 99.917030  
908.000000	 100.125026 
907.000000	 100.332474 
906.000000	 100.525712 
905.000000	 100.703096 
904.000000	 100.871300 
903.000000	 101.025128 
902.000000	 101.152873 
901.000000	 101.255202 
900.000000	 101.342391 
899.000000	 101.415276 
898.000000	 101.471304 
897.000000	 101.513695 
896.000000	 101.546764 
895.000000	 101.563525 
894.000000	 101.557850 
893.000000	 101.532030 
892.000000	 101.487064 
891.000000	 101.414084 
890.000000	 101.306819 
889.000000	 101.170539 
888.000000	 101.013898 
887.000000	 100.841975 
886.000000	 100.664544 
885.000000	 100.503039 
884.000000	 100.386071 
883.000000	 100.334787 
882.000000	 100.356698 
881.000000	 100.446557 
880.000000	 100.594162 
879.000000	 100.779390 
878.000000	 100.971364 
877.000000	 101.136589 
876.000000	 101.255226 
875.000000	 101.310110 
874.000000	 101.279187 
873.000000	 101.140737 
872.000000	 100.898551 
871.000000	 100.572395 
870.000000	 100.192213 
869.000000	 99.801898  
868.000000	 99.468874  
867.000000	 99.259734  
866.000000	 99.213051  
865.000000	 99.337530  
864.000000	 99.613523  
863.000000	 99.989485  
862.000000	 100.392556 
861.000000	 100.768995 
860.000000	 101.097941 
859.000000	 101.372003 
858.000000	 101.584267 
857.000000	 101.742672 
856.000000	 101.869082 
855.000000	 101.976585 
854.000000	 102.066206 
853.000000	 102.145075 
852.000000	 102.226042 
851.000000	 102.307987 
850.000000	 102.377486 
849.000000	 102.428030 
848.000000	 102.462267 
847.000000	 102.477383 
846.000000	 102.471542 
845.000000	 102.456641 
844.000000	 102.457022 
843.000000	 102.493572 
842.000000	 102.580690 
841.000000	 102.723503 
840.000000	 102.908134 
839.000000	 103.104090 
838.000000	 103.286886 
837.000000	 103.455448 
836.000000	 103.621625 
835.000000	 103.792953 
834.000000	 103.968620 
833.000000	 104.147601 
832.000000	 104.332137 
831.000000	 104.525685 
830.000000	 104.727506 
829.000000	 104.932975 
828.000000	 105.136561 
827.000000	 105.332350 
826.000000	 105.512452 
825.000000	 105.675125 
824.000000	 105.829143 
823.000000	 105.981993 
822.000000	 106.123638 
821.000000	 106.240177 
820.000000	 106.332039 
819.000000	 106.409811 
818.000000	 106.470775 
817.000000	 106.507539 
816.000000	 106.519532 
815.000000	 106.513476 
814.000000	 106.486868 
813.000000	 106.444835 
812.000000	 106.397199 
811.000000	 106.348729 
810.000000	 106.283760 
809.000000	 106.197619 
808.000000	 106.100416 
807.000000	 105.999660 
806.000000	 105.883264 
805.000000	 105.742359 
804.000000	 105.580377 
803.000000	 105.396413 
802.000000	 105.175566 
801.000000	 104.903197 
800.000000	 104.573440 
799.000000	 104.184317 
798.000000	 103.743076 
797.000000	 103.280591 
796.000000	 102.845907 
795.000000	 102.485394 
794.000000	 102.235484 
793.000000	 102.124667 
792.000000	 102.164101 
791.000000	 102.335000 
790.000000	 102.596187 
789.000000	 102.903342 
788.000000	 103.218078 
787.000000	 103.510546 
786.000000	 103.762340 
785.000000	 103.970718 
784.000000	 104.138994 
783.000000	 104.270792 
782.000000	 104.366326 
781.000000	 104.428601 
780.000000	 104.462790 
779.000000	 104.474329 
778.000000	 104.462671 
777.000000	 104.424953 
776.000000	 104.363131 
775.000000	 104.281067 
774.000000	 104.175114 
773.000000	 104.038047 
772.000000	 103.871655 
771.000000	 103.683042 
770.000000	 103.468585 
769.000000	 103.223466 
768.000000	 102.955007 
767.000000	 102.677607 
766.000000	 102.386784 
765.000000	 102.073001 
764.000000	 101.735091 
763.000000	 101.382756 
762.000000	 101.010751 
761.000000	 100.617265 
760.000000	 100.206685 
759.000000	 99.788093  
758.000000	 99.351477  
757.000000	 98.890924  
756.000000	 98.406291  
755.000000	 97.897720  
754.000000	 97.347879  
753.000000	 96.746230  
752.000000	 96.095299  
751.000000	 95.405006  
750.000000	 94.678640  
749.000000	 93.922948  
748.000000	 93.146109  
747.000000	 92.349910  
746.000000	 91.530442  
745.000000	 90.692448  
744.000000	 89.846873  
743.000000	 88.995838  
742.000000	 88.132405  
741.000000	 87.253761  
740.000000	 86.362051  
739.000000	 85.456943  
738.000000	 84.536194  
737.000000	 83.607506  
736.000000	 82.675576  
735.000000	 81.742215  
734.000000	 80.804395  
733.000000	 79.873752  
732.000000	 78.954935  
731.000000	 78.051304  
730.000000	 77.164101  
729.000000	 76.316928  
728.000000	 75.532197  
727.000000	 74.833822  
726.000000	 74.243664  
725.000000	 73.795008  
724.000000	 73.505544  
723.000000	 73.372220  
722.000000	 73.368406  
721.000000	 73.451733  
720.000000	 73.564052  
719.000000	 73.662424  
718.000000	 73.748707  
717.000000	 73.852324  
716.000000	 73.988270  
715.000000	 74.147558  
714.000000	 74.330234  
713.000000	 74.544453  
712.000000	 74.792623  
711.000000	 75.061273  
710.000000	 75.346994  
709.000000	 75.648093  
708.000000	 75.962352  
707.000000	 76.279783  
706.000000	 76.600217  
705.000000	 76.926255  
704.000000	 77.262878  
703.000000	 77.609038  
702.000000	 77.966499  
701.000000	 78.338146  
700.000000	 78.730154  
699.000000	 79.139089  
698.000000	 79.559350  
697.000000	 79.992985  
696.000000	 80.448746  
695.000000	 80.920457  
694.000000	 81.392335  
693.000000	 81.863212  
692.000000	 82.345843  
691.000000	 82.839465  
690.000000	 83.335494  
689.000000	 83.843469  
688.000000	 84.375596  
687.000000	 84.914493  
686.000000	 85.437536  
685.000000	 85.962414  
684.000000	 86.518239  
683.000000	 87.098407  
682.000000	 87.679147  
681.000000	 88.266348  
680.000000	 88.877511  
679.000000	 89.496088  
678.000000	 90.096855  
677.000000	 90.687823  
676.000000	 91.285777  
675.000000	 91.878056  
674.000000	 92.452979  
673.000000	 93.026685  
672.000000	 93.618464  
671.000000	 94.250082  
670.000000	 94.971346  
669.000000	 95.765972  
668.000000	 96.445631  
667.000000	 96.809196  
666.000000	 96.927118  
665.000000	 97.086048  
664.000000	 97.439575  
663.000000	 97.891354  
662.000000	 98.318028  
661.000000	 98.719406  
660.000000	 99.121260  
659.000000	 99.503207  
658.000000	 99.847984  
657.000000	 100.169873 
656.000000	 100.471806 
655.000000	 100.745272 
654.000000	 100.992298 
653.000000	 101.229238 
652.000000	 101.461577 
651.000000	 101.690697 
650.000000	 101.910281 
649.000000	 102.107858 
648.000000	 102.270603 
647.000000	 102.401304 
646.000000	 102.516150 
645.000000	 102.635240 
644.000000	 102.763247 
643.000000	 102.892661 
642.000000	 103.013801 
641.000000	 103.128337 
640.000000	 103.239846 
639.000000	 103.341245 
638.000000	 103.421187 
637.000000	 103.483605 
636.000000	 103.541660 
635.000000	 103.595471 
634.000000	 103.635907 
633.000000	 103.664946 
632.000000	 103.690361 
631.000000	 103.701996 
630.000000	 103.687453 
629.000000	 103.654336 
628.000000	 103.616523 
627.000000	 103.565311 
626.000000	 103.488516 
625.000000	 103.392529 
624.000000	 103.288531 
623.000000	 103.171372 
622.000000	 103.040862 
621.000000	 102.918815 
620.000000	 102.824807 
619.000000	 102.743673 
618.000000	 102.637887 
617.000000	 102.484846 
616.000000	 102.296304 
615.000000	 102.106285 
614.000000	 101.944875 
613.000000	 101.820731 
612.000000	 101.723718 
611.000000	 101.642823 
610.000000	 101.577043 
609.000000	 101.528644 
608.000000	 101.493620 
607.000000	 101.464915 
606.000000	 101.442956 
605.000000	 101.433944 
604.000000	 101.439809 
603.000000	 101.456141 
602.000000	 101.479768 
601.000000	 101.507329 
600.000000	 101.532840 
599.000000	 101.550912 
598.000000	 101.566123 
597.000000	 101.585435 
596.000000	 101.612210 
595.000000	 101.644015 
594.000000	 101.677203 
593.000000	 101.701998 
592.000000	 101.708722 
591.000000	 101.697969 
590.000000	 101.684165 
589.000000	 101.679563 
588.000000	 101.686048 
587.000000	 101.700305 
586.000000	 101.723670 
585.000000	 101.760983 
584.000000	 101.814937 
583.000000	 101.883745 
582.000000	 101.966047 
581.000000	 102.064585 
580.000000	 102.179908 
579.000000	 102.304530 
578.000000	 102.432394 
577.000000	 102.568936 
576.000000	 102.716445 
575.000000	 102.862000 
574.000000	 102.995657 
573.000000	 103.131413 
572.000000	 103.283715 
571.000000	 103.440952 
570.000000	 103.582453 
569.000000	 103.708362 
568.000000	 103.829050 
567.000000	 103.945493 
566.000000	 104.058408 
565.000000	 104.178237 
564.000000	 104.307961 
563.000000	 104.434633 
562.000000	 104.549241 
561.000000	 104.657697 
560.000000	 104.764366 
559.000000	 104.865360 
558.000000	 104.964947 
557.000000	 105.076146 
556.000000	 105.201578 
555.000000	 105.330348 
554.000000	 105.455422 
553.000000	 105.576491 
552.000000	 105.688095 
551.000000	 105.786132 
550.000000	 105.880856 
549.000000	 105.984234 
548.000000	 106.088423 
547.000000	 106.179356 
546.000000	 106.258988 
545.000000	 106.336951 
544.000000	 106.411361 
543.000000	 106.479763 
542.000000	 106.550931 
541.000000	 106.629562 
540.000000	 106.702327 
539.000000	 106.758546 
538.000000	 106.805706 
537.000000	 106.855773 
536.000000	 106.906676 
535.000000	 106.952261 
534.000000	 106.994390 
533.000000	 107.038044 
532.000000	 107.081484 
531.000000	 107.119345 
530.000000	 107.149481 
529.000000	 107.175946 
528.000000	 107.204723 
527.000000	 107.236599 
526.000000	 107.265162 
525.000000	 107.282638 
524.000000	 107.288742 
523.000000	 107.291960 
522.000000	 107.304859 
521.000000	 107.333135 
520.000000	 107.363843 
519.000000	 107.372188 
518.000000	 107.352304 
517.000000	 107.329058 
516.000000	 107.327342 
515.000000	 107.344269 
514.000000	 107.366538 
513.000000	 107.391977 
512.000000	 107.415771 
511.000000	 107.420587 
510.000000	 107.403588 
509.000000	 107.387900 
508.000000	 107.389712 
507.000000	 107.399535 
506.000000	 107.407879 
505.000000	 107.418632 
504.000000	 107.429027 
503.000000	 107.430481 
502.000000	 107.434082 
501.000000	 107.458496 
500.000000	 107.493281 
499.000000	 107.510328 
498.000000	 107.509732 
497.000000	 107.517004 
496.000000	 107.538294 
495.000000	 107.556200 
494.000000	 107.561707 
493.000000	 107.559537 
492.000000	 107.550311 
491.000000	 107.535982 
490.000000	 107.531142 
489.000000	 107.544136 
488.000000	 107.560706 
487.000000	 107.565641 
486.000000	 107.564330 
485.000000	 107.568788 
484.000000	 107.576370 
483.000000	 107.579231 
482.000000	 107.576727 
481.000000	 107.567048 
480.000000	 107.545685 
479.000000	 107.521414 
478.000000	 107.511496 
477.000000	 107.517790 
476.000000	 107.528996 
475.000000	 107.544803 
474.000000	 107.568311 
473.000000	 107.581210 
472.000000	 107.560348 
471.000000	 107.517147 
470.000000	 107.492923 
469.000000	 107.508969 
468.000000	 107.539391 
467.000000	 107.542800 
466.000000	 107.513594 
465.000000	 107.483434 
464.000000	 107.468891 
463.000000	 107.444906 
462.000000	 107.395291 
461.000000	 107.351064 
460.000000	 107.344150 
459.000000	 107.351446 
458.000000	 107.328724 
457.000000	 107.269787 
456.000000	 107.200384 
455.000000	 107.138133 
454.000000	 107.091474 
453.000000	 107.061624 
452.000000	 107.028126 
451.000000	 106.965613 
450.000000	 106.885552 
449.000000	 106.815624 
448.000000	 106.745076 
447.000000	 106.648111 
446.000000	 106.551504 
445.000000	 106.499218 
444.000000	 106.463766 
443.000000	 106.379151 
442.000000	 106.248521 
441.000000	 106.126689 
440.000000	 106.023693 
439.000000	 105.915617 
438.000000	 105.819821 
437.000000	 105.756235 
436.000000	 105.689978 
435.000000	 105.597543 
434.000000	 105.539417 
433.000000	 105.569243 
432.000000	 105.653858 
431.000000	 105.747127 
430.000000	 105.856013 
429.000000	 105.974388 
428.000000	 106.052732 
427.000000	 106.086444 
426.000000	 106.144905 
425.000000	 106.267189 
424.000000	 106.411242 
423.000000	 106.541252 
422.000000	 106.714534 
421.000000	 107.015776 
420.000000	 107.395315 
419.000000	 107.638740 
418.000000	 107.584953 
417.000000	 107.338285 
416.000000	 107.143044 
415.000000	 107.095193 
414.000000	 107.113671 
413.000000	 107.148480 
412.000000	 107.226419 
411.000000	 107.322430 
410.000000	 107.360029 
409.000000	 107.309722 
408.000000	 107.203269 
407.000000	 107.061600 
406.000000	 106.905508 
405.000000	 106.784963 
404.000000	 106.744456 
403.000000	 106.806135 
402.000000	 107.028555 
401.000000	 107.490539 
400.000000	 108.147692 

