PE IR       SPECTRUM    SPECTRUM    ASCII       PEDS        1.60        
  -1
10LEN4.ASC
14/01/10
12:28:27.00
14/01/10
12:28:27.00
Admin

400.000000
8









2002,4.07    
MIRTGS : RIGHTBACK : INTERNAL 2
MIR : ON : INTERNAL 2
OPTKBR

0.200000
1
4.000000
STRONG
RATIO
SPECTRUM
UNLOCKED 256

DOUBLE
8
FORWARD
1
0
0


1.000000
RATIO


1
0
TRUE
41620
0
LEFT NOT FITTED RIGHT NOT FITTED 0
NONE
NONE
15600
21.200000
8.970000
41618
TRUE
1 0 8 72 0 0 0 0 

15798.013000






#HDR
-1
-1
#GR
CM-1
%T
0.00002384185791015625
0.0
4000.000000
-1.000000
3601
8
117.764830
7.068562
#DATA
4000.000000	117.138075 
3999.000000	117.146348 
3998.000000	117.152047 
3997.000000	117.151999 
3996.000000	117.146801 
3995.000000	117.145681 
3994.000000	117.156958 
3993.000000	117.177057 
3992.000000	117.195701 
3991.000000	117.207407 
3990.000000	117.212319 
3989.000000	117.212176 
3988.000000	117.212009 
3987.000000	117.218708 
3986.000000	117.232871 
3985.000000	117.246747 
3984.000000	117.254471 
3983.000000	117.257905 
3982.000000	117.260146 
3981.000000	117.262315 
3980.000000	117.266869 
3979.000000	117.277526 
3978.000000	117.292332 
3977.000000	117.304396 
3976.000000	117.309689 
3975.000000	117.308759 
3974.000000	117.302560 
3973.000000	117.293024 
3972.000000	117.286348 
3971.000000	117.287635 
3970.000000	117.293787 
3969.000000	117.298054 
3968.000000	117.299318 
3967.000000	117.300844 
3966.000000	117.303442 
3965.000000	117.305350 
3964.000000	117.305684 
3963.000000	117.303776 
3962.000000	117.298507 
3961.000000	117.292523 
3960.000000	117.291879 
3959.000000	117.298269 
3958.000000	117.306995 
3957.000000	117.314934 
3956.000000	117.323637 
3955.000000	117.333531 
3954.000000	117.342185 
3953.000000	117.349410 
3952.000000	117.356801 
3951.000000	117.360758 
3950.000000	117.353272 
3949.000000	117.333507 
3948.000000	117.314314 
3947.000000	117.311406 
3946.000000	117.325544 
3945.000000	117.339038 
3944.000000	117.334461 
3943.000000	117.315077 
3942.000000	117.301273 
3941.000000	117.308473 
3940.000000	117.333817 
3939.000000	117.363643 
3938.000000	117.389750 
3937.000000	117.414188 
3936.000000	117.440271 
3935.000000	117.463827 
3934.000000	117.475485 
3933.000000	117.471289 
3932.000000	117.457628 
3931.000000	117.447233 
3930.000000	117.450022 
3929.000000	117.467713 
3928.000000	117.494726 
3927.000000	117.519927 
3926.000000	117.530179 
3925.000000	117.522692 
3924.000000	117.512798 
3923.000000	117.518663 
3922.000000	117.538452 
3921.000000	117.555356 
3920.000000	117.560958 
3919.000000	117.559123 
3918.000000	117.550373 
3917.000000	117.535233 
3916.000000	117.525959 
3915.000000	117.534971 
3914.000000	117.555475 
3913.000000	117.571759 
3912.000000	117.580413 
3911.000000	117.588996 
3910.000000	117.602229 
3909.000000	117.622113 
3908.000000	117.648553 
3907.000000	117.668914 
3906.000000	117.661023 
3905.000000	117.618870 
3904.000000	117.564296 
3903.000000	117.526388 
3902.000000	117.513513 
3901.000000	117.509889 
3900.000000	117.500042 
3899.000000	117.490696 
3898.000000	117.500591 
3897.000000	117.534065 
3896.000000	117.578506 
3895.000000	117.621445 
3894.000000	117.651200 
3893.000000	117.649555 
3892.000000	117.610216 
3891.000000	117.563748 
3890.000000	117.556643 
3889.000000	117.599487 
3888.000000	117.651581 
3887.000000	117.664837 
3886.000000	117.633533 
3885.000000	117.595124 
3884.000000	117.584347 
3883.000000	117.592692 
3882.000000	117.583847 
3881.000000	117.543363 
3880.000000	117.499065 
3879.000000	117.491245 
3878.000000	117.532467 
3877.000000	117.593050 
3876.000000	117.625880 
3875.000000	117.614173 
3874.000000	117.590427 
3873.000000	117.590904 
3872.000000	117.600750 
3871.000000	117.578101 
3870.000000	117.526483 
3869.000000	117.499876 
3868.000000	117.529606 
3867.000000	117.582821 
3866.000000	117.604899 
3865.000000	117.580270 
3864.000000	117.540907 
3863.000000	117.524075 
3862.000000	117.536473 
3861.000000	117.562413 
3860.000000	117.594361 
3859.000000	117.633891 
3858.000000	117.672753 
3857.000000	117.698192 
3856.000000	117.700123 
3855.000000	117.653465 
3854.000000	117.538094 
3853.000000	117.403864 
3852.000000	117.353391 
3851.000000	117.419910 
3850.000000	117.525839 
3849.000000	117.596936 
3848.000000	117.643809 
3847.000000	117.698597 
3846.000000	117.744302 
3845.000000	117.749214 
3844.000000	117.719888 
3843.000000	117.686176 
3842.000000	117.662358 
3841.000000	117.640519 
3840.000000	117.611193 
3839.000000	117.580366 
3838.000000	117.564463 
3837.000000	117.571187 
3836.000000	117.592549 
3835.000000	117.614483 
3834.000000	117.625498 
3833.000000	117.619657 
3832.000000	117.605400 
3831.000000	117.603564 
3830.000000	117.625665 
3829.000000	117.655611 
3828.000000	117.664742 
3827.000000	117.647528 
3826.000000	117.632293 
3825.000000	117.648434 
3824.000000	117.683267 
3823.000000	117.690229 
3822.000000	117.644429 
3821.000000	117.579483 
3820.000000	117.556834 
3819.000000	117.594432 
3818.000000	117.641139 
3817.000000	117.639541 
3816.000000	117.598319 
3815.000000	117.574882 
3814.000000	117.597866 
3813.000000	117.642259 
3812.000000	117.679762 
3811.000000	117.712116 
3810.000000	117.744183 
3809.000000	117.754578 
3808.000000	117.719221 
3807.000000	117.655038 
3806.000000	117.615556 
3805.000000	117.632055 
3804.000000	117.672038 
3803.000000	117.672109 
3802.000000	117.613649 
3801.000000	117.549037 
3800.000000	117.541408 
3799.000000	117.590284 
3798.000000	117.636656 
3797.000000	117.642378 
3796.000000	117.630767 
3795.000000	117.638325 
3794.000000	117.663455 
3793.000000	117.686581 
3792.000000	117.703676 
3791.000000	117.718410 
3790.000000	117.727565 
3789.000000	117.729711 
3788.000000	117.729353 
3787.000000	117.725110 
3786.000000	117.710161 
3785.000000	117.687749 
3784.000000	117.676472 
3783.000000	117.692637 
3782.000000	117.727589 
3781.000000	117.750334 
3780.000000	117.740797 
3779.000000	117.712759 
3778.000000	117.694926 
3777.000000	117.697262 
3776.000000	117.708969 
3775.000000	117.721033 
3774.000000	117.737197 
3773.000000	117.757582 
3772.000000	117.764830 
3771.000000	117.740607 
3770.000000	117.696499 
3769.000000	117.668151 
3768.000000	117.670941 
3767.000000	117.681598 
3766.000000	117.673325 
3765.000000	117.652940 
3764.000000	117.649722 
3763.000000	117.673015 
3762.000000	117.697119 
3761.000000	117.690825 
3760.000000	117.652702 
3759.000000	117.610073 
3758.000000	117.586946 
3757.000000	117.588782 
3756.000000	117.613625 
3755.000000	117.651247 
3754.000000	117.672109 
3753.000000	117.643332 
3752.000000	117.564487 
3751.000000	117.470502 
3750.000000	117.404627 
3749.000000	117.401647 
3748.000000	117.464470 
3747.000000	117.536878 
3746.000000	117.539787 
3745.000000	117.465567 
3744.000000	117.394995 
3743.000000	117.393040 
3742.000000	117.437815 
3741.000000	117.478227 
3740.000000	117.504644 
3739.000000	117.527103 
3738.000000	117.527174 
3737.000000	117.471909 
3736.000000	117.363953 
3735.000000	117.252492 
3734.000000	117.185807 
3733.000000	117.164969 
3732.000000	117.161750 
3731.000000	117.168354 
3730.000000	117.194986 
3729.000000	117.228150 
3728.000000	117.237257 
3727.000000	117.222285 
3726.000000	117.212438 
3725.000000	117.219853 
3724.000000	117.233014 
3723.000000	117.245936 
3722.000000	117.264199 
3721.000000	117.289090 
3720.000000	117.318916 
3719.000000	117.356991 
3718.000000	117.402029 
3717.000000	117.446660 
3716.000000	117.489099 
3715.000000	117.526721 
3714.000000	117.532634 
3713.000000	117.470860 
3712.000000	117.347979 
3711.000000	117.223119 
3710.000000	117.152118 
3709.000000	117.142009 
3708.000000	117.166972 
3707.000000	117.202734 
3706.000000	117.235350 
3705.000000	117.256379 
3704.000000	117.261481 
3703.000000	117.247867 
3702.000000	117.214941 
3701.000000	117.174077 
3700.000000	117.149662 
3699.000000	117.154121 
3698.000000	117.171263 
3697.000000	117.179465 
3696.000000	117.179942 
3695.000000	117.183351 
3694.000000	117.186737 
3693.000000	117.180967 
3692.000000	117.166423 
3691.000000	117.141890 
3690.000000	117.097806 
3689.000000	117.043447 
3688.000000	117.010498 
3687.000000	117.015528 
3686.000000	117.040896 
3685.000000	117.062282 
3684.000000	117.076015 
3683.000000	117.090582 
3682.000000	117.104339 
3681.000000	117.105865 
3680.000000	117.096900 
3679.000000	117.095947 
3678.000000	117.098283 
3677.000000	117.057275 
3676.000000	116.952371 
3675.000000	116.852855 
3674.000000	116.847944 
3673.000000	116.926503 
3672.000000	116.988778 
3671.000000	116.971135 
3670.000000	116.905331 
3669.000000	116.858434 
3668.000000	116.861057 
3667.000000	116.897559 
3666.000000	116.935420 
3665.000000	116.956377 
3664.000000	116.964650 
3663.000000	116.971731 
3662.000000	116.983103 
3661.000000	116.999220 
3660.000000	117.020964 
3659.000000	117.041707 
3658.000000	117.038774 
3657.000000	116.996431 
3656.000000	116.938066 
3655.000000	116.913557 
3654.000000	116.946601 
3653.000000	117.012238 
3652.000000	117.067265 
3651.000000	117.074489 
3650.000000	117.008161 
3649.000000	116.882228 
3648.000000	116.767311 
3647.000000	116.733694 
3646.000000	116.778254 
3645.000000	116.840910 
3644.000000	116.880345 
3643.000000	116.901350 
3642.000000	116.917276 
3641.000000	116.927766 
3640.000000	116.931152 
3639.000000	116.929721 
3638.000000	116.925430 
3637.000000	116.920566 
3636.000000	116.917109 
3635.000000	116.906714 
3634.000000	116.883182 
3633.000000	116.867208 
3632.000000	116.878628 
3631.000000	116.880774 
3630.000000	116.818070 
3629.000000	116.712784 
3628.000000	116.658067 
3627.000000	116.697001 
3626.000000	116.776990 
3625.000000	116.839504 
3624.000000	116.888284 
3623.000000	116.948032 
3622.000000	117.007851 
3621.000000	117.032790 
3620.000000	117.009282 
3619.000000	116.964745 
3618.000000	116.944479 
3617.000000	116.970038 
3616.000000	117.021393 
3615.000000	117.062282 
3614.000000	117.075872 
3613.000000	117.073631 
3612.000000	117.076468 
3611.000000	117.090702 
3610.000000	117.097544 
3609.000000	117.075276 
3608.000000	117.036294 
3607.000000	117.020583 
3606.000000	117.047691 
3605.000000	117.094421 
3604.000000	117.129421 
3603.000000	117.145156 
3602.000000	117.148232 
3601.000000	117.143416 
3600.000000	117.139029 
3599.000000	117.145156 
3598.000000	117.155790 
3597.000000	117.153167 
3596.000000	117.133355 
3595.000000	117.111229 
3594.000000	117.100858 
3593.000000	117.109155 
3592.000000	117.139673 
3591.000000	117.182207 
3590.000000	117.207360 
3589.000000	117.194294 
3588.000000	117.157363 
3587.000000	117.131018 
3586.000000	117.132878 
3585.000000	117.154860 
3584.000000	117.181539 
3583.000000	117.202210 
3582.000000	117.209839 
3581.000000	117.202210 
3580.000000	117.181849 
3579.000000	117.155885 
3578.000000	117.132329 
3577.000000	117.114996 
3576.000000	117.101860 
3575.000000	117.090201 
3574.000000	117.081332 
3573.000000	117.079472 
3572.000000	117.088484 
3571.000000	117.108201 
3570.000000	117.123913 
3569.000000	117.107248 
3568.000000	117.045664 
3567.000000	116.967415 
3566.000000	116.918635 
3565.000000	116.917276 
3564.000000	116.945099 
3563.000000	116.978192 
3562.000000	117.002987 
3561.000000	117.011475 
3560.000000	117.002391 
3559.000000	116.987085 
3558.000000	116.978120 
3557.000000	116.976475 
3556.000000	116.978073 
3555.000000	116.982102 
3554.000000	116.986370 
3553.000000	116.985344 
3552.000000	116.981458 
3551.000000	116.986942 
3550.000000	117.006182 
3549.000000	117.030405 
3548.000000	117.052245 
3547.000000	117.073321 
3546.000000	117.092514 
3545.000000	117.102169 
3544.000000	117.100667 
3543.000000	117.094135 
3542.000000	117.085671 
3541.000000	117.075300 
3540.000000	117.069911 
3539.000000	117.078351 
3538.000000	117.096400 
3537.000000	117.109537 
3536.000000	117.109179 
3535.000000	117.097878 
3534.000000	117.082118 
3533.000000	117.068886 
3532.000000	117.062878 
3531.000000	117.061090 
3530.000000	117.053341 
3529.000000	117.036914 
3528.000000	117.025756 
3527.000000	117.038464 
3526.000000	117.077970 
3525.000000	117.126202 
3524.000000	117.157196 
3523.000000	117.155790 
3522.000000	117.126965 
3521.000000	117.089915 
3520.000000	117.062520 
3519.000000	117.050099 
3518.000000	117.049670 
3517.000000	117.058968 
3516.000000	117.078518 
3515.000000	117.104268 
3514.000000	117.122077 
3513.000000	117.114949 
3512.000000	117.075538 
3511.000000	117.012643 
3510.000000	116.947627 
3509.000000	116.901803 
3508.000000	116.885995 
3507.000000	116.898131 
3506.000000	116.932249 
3505.000000	116.979837 
3504.000000	117.024612 
3503.000000	117.044568 
3502.000000	117.029809 
3501.000000	116.995549 
3500.000000	116.970777 
3499.000000	116.969728 
3498.000000	116.977429 
3497.000000	116.966414 
3496.000000	116.927957 
3495.000000	116.875410 
3494.000000	116.819453 
3493.000000	116.757559 
3492.000000	116.691541 
3491.000000	116.636753 
3490.000000	116.605401 
3489.000000	116.592025 
3488.000000	116.580128 
3487.000000	116.549420 
3486.000000	116.481852 
3485.000000	116.376233 
3484.000000	116.260981 
3483.000000	116.177296 
3482.000000	116.143488 
3481.000000	116.138076 
3480.000000	116.116523 
3479.000000	116.044688 
3478.000000	115.920376 
3477.000000	115.769314 
3476.000000	115.623497 
3475.000000	115.499806 
3474.000000	115.402245 
3473.000000	115.334320 
3472.000000	115.303111 
3471.000000	115.305161 
3470.000000	115.319633 
3469.000000	115.319371 
3468.000000	115.290284 
3467.000000	115.234255 
3466.000000	115.163636 
3465.000000	115.093564 
3464.000000	115.043520 
3463.000000	115.034627 
3462.000000	115.075898 
3461.000000	115.151906 
3460.000000	115.231990 
3459.000000	115.295863 
3458.000000	115.346240 
3457.000000	115.398311 
3456.000000	115.463662 
3455.000000	115.544533 
3454.000000	115.635728 
3453.000000	115.730643 
3452.000000	115.826082 
3451.000000	115.923380 
3450.000000	116.021943 
3449.000000	116.116118 
3448.000000	116.197991 
3447.000000	116.264843 
3446.000000	116.319370 
3445.000000	116.367006 
3444.000000	116.413903 
3443.000000	116.463589 
3442.000000	116.515326 
3441.000000	116.568303 
3440.000000	116.629505 
3439.000000	116.704535 
3438.000000	116.782832 
3437.000000	116.842818 
3436.000000	116.876649 
3435.000000	116.894268 
3434.000000	116.904664 
3433.000000	116.910481 
3432.000000	116.918730 
3431.000000	116.937136 
3430.000000	116.959333 
3429.000000	116.970372 
3428.000000	116.966557 
3427.000000	116.955184 
3426.000000	116.940593 
3425.000000	116.926860 
3424.000000	116.923856 
3423.000000	116.937971 
3422.000000	116.959619 
3421.000000	116.974425 
3420.000000	116.978025 
3419.000000	116.976451 
3418.000000	116.976904 
3417.000000	116.985106 
3416.000000	117.005395 
3415.000000	117.035913 
3414.000000	117.067170 
3413.000000	117.088437 
3412.000000	117.096281 
3411.000000	117.096042 
3410.000000	117.094826 
3409.000000	117.094159 
3408.000000	117.091679 
3407.000000	117.087960 
3406.000000	117.088699 
3405.000000	117.099022 
3404.000000	117.119646 
3403.000000	117.147874 
3402.000000	117.178320 
3401.000000	117.202591 
3400.000000	117.211675 
3399.000000	117.202591 
3398.000000	117.182135 
3397.000000	117.163586 
3396.000000	117.158603 
3395.000000	117.169880 
3394.000000	117.189073 
3393.000000	117.203998 
3392.000000	117.208147 
3391.000000	117.203235 
3390.000000	117.190933 
3389.000000	117.170906 
3388.000000	117.147564 
3387.000000	117.129826 
3386.000000	117.119431 
3385.000000	117.110514 
3384.000000	117.103481 
3383.000000	117.105984 
3382.000000	117.118263 
3381.000000	117.130756 
3380.000000	117.139506 
3379.000000	117.149686 
3378.000000	117.162060 
3377.000000	117.170548 
3376.000000	117.173051 
3375.000000	117.174196 
3374.000000	117.177677 
3373.000000	117.185807 
3372.000000	117.202591 
3371.000000	117.227554 
3370.000000	117.251038 
3369.000000	117.263627 
3368.000000	117.264628 
3367.000000	117.255973 
3366.000000	117.235422 
3365.000000	117.204332 
3364.000000	117.174863 
3363.000000	117.160749 
3362.000000	117.163753 
3361.000000	117.174530 
3360.000000	117.181825 
3359.000000	117.179036 
3358.000000	117.166638 
3357.000000	117.152523 
3356.000000	117.145419 
3355.000000	117.147231 
3354.000000	117.155313 
3353.000000	117.169618 
3352.000000	117.190885 
3351.000000	117.213678 
3350.000000	117.226171 
3349.000000	117.221260 
3348.000000	117.204380 
3347.000000	117.189455 
3346.000000	117.185425 
3345.000000	117.188858 
3344.000000	117.192292 
3343.000000	117.194175 
3342.000000	117.197585 
3341.000000	117.203044 
3340.000000	117.208743 
3339.000000	117.214250 
3338.000000	117.217326 
3337.000000	117.211961 
3336.000000	117.196011 
3335.000000	117.175030 
3334.000000	117.155909 
3333.000000	117.140293 
3332.000000	117.128896 
3331.000000	117.124748 
3330.000000	117.129039 
3329.000000	117.140054 
3328.000000	117.156958 
3327.000000	117.177748 
3326.000000	117.193317 
3325.000000	117.194509 
3324.000000	117.184066 
3323.000000	117.171573 
3322.000000	117.158102 
3321.000000	117.139720 
3320.000000	117.120480 
3319.000000	117.108011 
3318.000000	117.100596 
3317.000000	117.093133 
3316.000000	117.088747 
3315.000000	117.091941 
3314.000000	117.096924 
3313.000000	117.097401 
3312.000000	117.098426 
3311.000000	117.108273 
3310.000000	117.124867 
3309.000000	117.139840 
3308.000000	117.148375 
3307.000000	117.149162 
3306.000000	117.140865 
3305.000000	117.123723 
3304.000000	117.100310 
3303.000000	117.072272 
3302.000000	117.040252 
3301.000000	117.007923 
3300.000000	116.983032 
3299.000000	116.972184 
3298.000000	116.975069 
3297.000000	116.983532 
3296.000000	116.987872 
3295.000000	116.983294 
3294.000000	116.970872 
3293.000000	116.952443 
3292.000000	116.928195 
3291.000000	116.898584 
3290.000000	116.865468 
3289.000000	116.833257 
3288.000000	116.809368 
3287.000000	116.801118 
3286.000000	116.806292 
3285.000000	116.814088 
3284.000000	116.817545 
3283.000000	116.820979 
3282.000000	116.828680 
3281.000000	116.836857 
3280.000000	116.842770 
3279.000000	116.851782 
3278.000000	116.868042 
3277.000000	116.888499 
3276.000000	116.911005 
3275.000000	116.936874 
3274.000000	116.962075 
3273.000000	116.979074 
3272.000000	116.988229 
3271.000000	116.996049 
3270.000000	117.001247 
3269.000000	116.996598 
3268.000000	116.983413 
3267.000000	116.970896 
3266.000000	116.963005 
3265.000000	116.957187 
3264.000000	116.953182 
3263.000000	116.952371 
3262.000000	116.951274 
3261.000000	116.945481 
3260.000000	116.937375 
3259.000000	116.933178 
3258.000000	116.934037 
3257.000000	116.937470 
3256.000000	116.940402 
3255.000000	116.938972 
3254.000000	116.929244 
3253.000000	116.912984 
3252.000000	116.897797 
3251.000000	116.889309 
3250.000000	116.887307 
3249.000000	116.890740 
3248.000000	116.898107 
3247.000000	116.902995 
3246.000000	116.896343 
3245.000000	116.876840 
3244.000000	116.852426 
3243.000000	116.831278 
3242.000000	116.814231 
3241.000000	116.798138 
3240.000000	116.782331 
3239.000000	116.770362 
3238.000000	116.764807 
3237.000000	116.763567 
3236.000000	116.763806 
3235.000000	116.765332 
3234.000000	116.765213 
3233.000000	116.754746 
3232.000000	116.730809 
3231.000000	116.702556 
3230.000000	116.680717 
3229.000000	116.665267 
3228.000000	116.651868 
3227.000000	116.640686 
3226.000000	116.631007 
3225.000000	116.618180 
3224.000000	116.602778 
3223.000000	116.591882 
3222.000000	116.587424 
3221.000000	116.581726 
3220.000000	116.570210 
3219.000000	116.555547 
3218.000000	116.539216 
3217.000000	116.520500 
3216.000000	116.504359 
3215.000000	116.495943 
3214.000000	116.489458 
3213.000000	116.475152 
3212.000000	116.454434 
3211.000000	116.435837 
3210.000000	116.420030 
3209.000000	116.402149 
3208.000000	116.384053 
3207.000000	116.370964 
3206.000000	116.360878 
3205.000000	116.348886 
3204.000000	116.335558 
3203.000000	116.322755 
3202.000000	116.307497 
3201.000000	116.287517 
3200.000000	116.266059 
3199.000000	116.246604 
3198.000000	116.227793 
3197.000000	116.207957 
3196.000000	116.189503 
3195.000000	116.174960 
3194.000000	116.162919 
3193.000000	116.149353 
3192.000000	116.132569 
3191.000000	116.114592 
3190.000000	116.097044 
3189.000000	116.078281 
3188.000000	116.056013 
3187.000000	116.032814 
3186.000000	116.013503 
3185.000000	115.997982 
3184.000000	115.982508 
3183.000000	115.966129 
3182.000000	115.950608 
3181.000000	115.935420 
3180.000000	115.918612 
3179.000000	115.900707 
3178.000000	115.882682 
3177.000000	115.864467 
3176.000000	115.848660 
3175.000000	115.841007 
3174.000000	115.840840 
3173.000000	115.839672 
3172.000000	115.832901 
3171.000000	115.826010 
3170.000000	115.823316 
3169.000000	115.822005 
3168.000000	115.820837 
3167.000000	115.823507 
3166.000000	115.828871 
3165.000000	115.830421 
3164.000000	115.827441 
3163.000000	115.825271 
3162.000000	115.823388 
3161.000000	115.816807 
3160.000000	115.807628 
3159.000000	115.803265 
3158.000000	115.803766 
3157.000000	115.803813 
3156.000000	115.804076 
3155.000000	115.808868 
3154.000000	115.815424 
3153.000000	115.816855 
3152.000000	115.811061 
3151.000000	115.799856 
3150.000000	115.782999 
3149.000000	115.762138 
3148.000000	115.743470 
3147.000000	115.730834 
3146.000000	115.720534 
3145.000000	115.708112 
3144.000000	115.694785 
3143.000000	115.683650 
3142.000000	115.675735 
3141.000000	115.671586 
3140.000000	115.670680 
3139.000000	115.667724 
3138.000000	115.654659 
3137.000000	115.628695 
3136.000000	115.595507 
3135.000000	115.563273 
3134.000000	115.535926 
3133.000000	115.513110 
3132.000000	115.494441 
3131.000000	115.481328 
3130.000000	115.472078 
3129.000000	115.458703 
3128.000000	115.435409 
3127.000000	115.405726 
3126.000000	115.377545 
3125.000000	115.353012 
3124.000000	115.330505 
3123.000000	115.310978 
3122.000000	115.295529 
3121.000000	115.280008 
3120.000000	115.260577 
3119.000000	115.237998 
3118.000000	115.213203 
3117.000000	115.183472 
3116.000000	115.148520 
3115.000000	115.111970 
3114.000000	115.073752 
3113.000000	115.031409 
3112.000000	114.990258 
3111.000000	114.958977 
3110.000000	114.933896 
3109.000000	114.901351 
3108.000000	114.857316 
3107.000000	114.809465 
3106.000000	114.761638 
3105.000000	114.711332 
3104.000000	114.660882 
3103.000000	114.616513 
3102.000000	114.575958 
3101.000000	114.532113 
3100.000000	114.484047 
3099.000000	114.434456 
3098.000000	114.380145 
3097.000000	114.317798 
3096.000000	114.251565 
3095.000000	114.189529 
3094.000000	114.133286 
3093.000000	114.081072 
3092.000000	114.030361 
3091.000000	113.977956 
3090.000000	113.917517 
3089.000000	113.847041 
3088.000000	113.769626 
3087.000000	113.689088 
3086.000000	113.604378 
3085.000000	113.512825 
3084.000000	113.412618 
3083.000000	113.303661 
3082.000000	113.185811 
3081.000000	113.058161 
3080.000000	112.920427 
3079.000000	112.773823 
3078.000000	112.616872 
3077.000000	112.443256 
3076.000000	112.248492 
3075.000000	112.036681 
3074.000000	111.815309 
3073.000000	111.587667 
3072.000000	111.355781 
3071.000000	111.127758 
3070.000000	110.910868 
3069.000000	110.704803 
3068.000000	110.508775 
3067.000000	110.328722 
3066.000000	110.170030 
3065.000000	110.031437 
3064.000000	109.914278 
3063.000000	109.825134 
3062.000000	109.763360 
3061.000000	109.716248 
3060.000000	109.674501 
3059.000000	109.638237 
3058.000000	109.604573 
3057.000000	109.561657 
3056.000000	109.500408 
3055.000000	109.419941 
3054.000000	109.319353 
3053.000000	109.195899 
3052.000000	109.049439 
3051.000000	108.882474 
3050.000000	108.688831 
3049.000000	108.464765 
3048.000000	108.212423 
3047.000000	107.941794 
3046.000000	107.646751 
3045.000000	107.323217 
3044.000000	106.962800 
3043.000000	106.571340 
3042.000000	106.137061 
3041.000000	105.658745 
3040.000000	105.122351 
3039.000000	104.535627 
3038.000000	103.885030 
3037.000000	103.169226 
3036.000000	102.364397 
3035.000000	101.470851 
3034.000000	100.471568 
3033.000000	99.355554  
3032.000000	98.090076  
3031.000000	96.666002  
3030.000000	95.075798  
3029.000000	93.310904  
3028.000000	91.334342  
3027.000000	89.108586  
3026.000000	86.601305  
3025.000000	83.800649  
3024.000000	80.698156  
3023.000000	77.306008  
3022.000000	73.636889  
3021.000000	69.738054  
3020.000000	65.675187  
3019.000000	61.578464  
3018.000000	57.577490  
3017.000000	53.830957  
3016.000000	50.471401  
3015.000000	47.658848  
3014.000000	45.495676  
3013.000000	44.065356  
3012.000000	43.393111  
3011.000000	43.510818  
3010.000000	44.389057  
3009.000000	45.968031  
3008.000000	48.133492  
3007.000000	50.785017  
3006.000000	53.800654  
3005.000000	57.055735  
3004.000000	60.393691  
3003.000000	63.670349  
3002.000000	66.759586  
3001.000000	69.581604  
3000.000000	72.085523  
2999.000000	74.253940  
2998.000000	76.089835  
2997.000000	77.621579  
2996.000000	78.876638  
2995.000000	79.892897  
2994.000000	80.694985  
2993.000000	81.324625  
2992.000000	81.793355  
2991.000000	82.131886  
2990.000000	82.329297  
2989.000000	82.401514  
2988.000000	82.316923  
2987.000000	82.082414  
2986.000000	81.666445  
2985.000000	81.070494  
2984.000000	80.255818  
2983.000000	79.218721  
2982.000000	77.940678  
2981.000000	76.429295  
2980.000000	74.677944  
2979.000000	72.707438  
2978.000000	70.543122  
2977.000000	68.219947  
2976.000000	65.770673  
2975.000000	63.249039  
2974.000000	60.719633  
2973.000000	58.235597  
2972.000000	55.827617  
2971.000000	53.519868  
2970.000000	51.335501  
2969.000000	49.294185  
2968.000000	47.420716  
2967.000000	45.762419  
2966.000000	44.370913  
2965.000000	43.285608  
2964.000000	42.521977  
2963.000000	42.091107  
2962.000000	41.965174  
2961.000000	42.077803  
2960.000000	42.314910  
2959.000000	42.567777  
2958.000000	42.725539  
2957.000000	42.706489  
2956.000000	42.455363  
2955.000000	41.978001  
2954.000000	41.326642  
2953.000000	40.591478  
2952.000000	39.865064  
2951.000000	39.215970  
2950.000000	38.665819  
2949.000000	38.185501  
2948.000000	37.709021  
2947.000000	37.157225  
2946.000000	36.463570  
2945.000000	35.582852  
2944.000000	34.493732  
2943.000000	33.198595  
2942.000000	31.729078  
2941.000000	30.125164  
2940.000000	28.428030  
2939.000000	26.681303  
2938.000000	24.959206  
2937.000000	23.332619  
2936.000000	21.863126  
2935.000000	20.593380  
2934.000000	19.579458  
2933.000000	18.837833  
2932.000000	18.351387  
2931.000000	18.079733  
2930.000000	18.019962  
2929.000000	18.151569  
2928.000000	18.447852  
2927.000000	18.875527  
2926.000000	19.447135  
2925.000000	20.158338  
2924.000000	20.998311  
2923.000000	21.955394  
2922.000000	23.046231  
2921.000000	24.264883  
2920.000000	25.586795  
2919.000000	26.991224  
2918.000000	28.473186  
2917.000000	30.012893  
2916.000000	31.576156  
2915.000000	33.144426  
2914.000000	34.713125  
2913.000000	36.271882  
2912.000000	37.801361  
2911.000000	39.299035  
2910.000000	40.771198  
2909.000000	42.218756  
2908.000000	43.636465  
2907.000000	45.026993  
2906.000000	46.396970  
2905.000000	47.745394  
2904.000000	49.072194  
2903.000000	50.378322  
2902.000000	51.667261  
2901.000000	52.931261  
2900.000000	54.169344  
2899.000000	55.382180  
2898.000000	56.576466  
2897.000000	57.747316  
2896.000000	58.891296  
2895.000000	60.003709  
2894.000000	61.085867  
2893.000000	62.135195  
2892.000000	63.145256  
2891.000000	64.104938  
2890.000000	65.002250  
2889.000000	65.825390  
2888.000000	66.557502  
2887.000000	67.184019  
2886.000000	67.688131  
2885.000000	68.054986  
2884.000000	68.254661  
2883.000000	68.265771  
2882.000000	68.066787  
2881.000000	67.657780  
2880.000000	67.032098  
2879.000000	66.225171  
2878.000000	65.292167  
2877.000000	64.338946  
2876.000000	63.452911  
2875.000000	62.731266  
2874.000000	62.211060  
2873.000000	61.885762  
2872.000000	61.665606  
2871.000000	61.449193  
2870.000000	61.127305  
2869.000000	60.608816  
2868.000000	59.813308  
2867.000000	58.702397  
2866.000000	57.274150  
2865.000000	55.547761  
2864.000000	53.550744  
2863.000000	51.339006  
2862.000000	48.989295  
2861.000000	46.598362  
2860.000000	44.271755  
2859.000000	42.152214  
2858.000000	40.388035  
2857.000000	39.126610  
2856.000000	38.477540  
2855.000000	38.532638  
2854.000000	39.322113  
2853.000000	40.826439  
2852.000000	42.951393  
2851.000000	45.588421  
2850.000000	48.593735  
2849.000000	51.841330  
2848.000000	55.186343  
2847.000000	58.522868  
2846.000000	61.744332  
2845.000000	64.798593  
2844.000000	67.651820  
2843.000000	70.320725  
2842.000000	72.822690  
2841.000000	75.185537  
2840.000000	77.417826  
2839.000000	79.525160  
2838.000000	81.499671  
2837.000000	83.337759  
2836.000000	85.037469  
2835.000000	86.611652  
2834.000000	88.074040  
2833.000000	89.445853  
2832.000000	90.737104  
2831.000000	91.963052  
2830.000000	93.124842  
2829.000000	94.232487  
2828.000000	95.280718  
2827.000000	96.274161  
2826.000000	97.203660  
2825.000000	98.076009  
2824.000000	98.889255  
2823.000000	99.655270  
2822.000000	100.374293 
2821.000000	101.058387 
2820.000000	101.710844 
2819.000000	102.340054 
2818.000000	102.942466 
2817.000000	103.520536 
2816.000000	104.074263 
2815.000000	104.608201 
2814.000000	105.120754 
2813.000000	105.611419 
2812.000000	106.078934 
2811.000000	106.524753 
2810.000000	106.948065 
2809.000000	107.345223 
2808.000000	107.713937 
2807.000000	108.057498 
2806.000000	108.381247 
2805.000000	108.683300 
2804.000000	108.962130 
2803.000000	109.221506 
2802.000000	109.469413 
2801.000000	109.702801 
2800.000000	109.917092 
2799.000000	110.110354 
2798.000000	110.286045 
2797.000000	110.441136 
2796.000000	110.578131 
2795.000000	110.706114 
2794.000000	110.835862 
2793.000000	110.967111 
2792.000000	111.099386 
2791.000000	111.232805 
2790.000000	111.363530 
2789.000000	111.481308 
2788.000000	111.585998 
2787.000000	111.687898 
2786.000000	111.793875 
2785.000000	111.900424 
2784.000000	112.005639 
2783.000000	112.111306 
2782.000000	112.213921 
2781.000000	112.305450 
2780.000000	112.385869 
2779.000000	112.462759 
2778.000000	112.539100 
2777.000000	112.611722 
2776.000000	112.678575 
2775.000000	112.739229 
2774.000000	112.789177 
2773.000000	112.825560 
2772.000000	112.853741 
2771.000000	112.883806 
2770.000000	112.921118 
2769.000000	112.966251 
2768.000000	113.018608 
2767.000000	113.077950 
2766.000000	113.140702 
2765.000000	113.201618 
2764.000000	113.256430 
2763.000000	113.304996 
2762.000000	113.350033 
2761.000000	113.394260 
2760.000000	113.437318 
2759.000000	113.477110 
2758.000000	113.511824 
2757.000000	113.541126 
2756.000000	113.564944 
2755.000000	113.583493 
2754.000000	113.597297 
2753.000000	113.608717 
2752.000000	113.622069 
2751.000000	113.641262 
2750.000000	113.665175 
2749.000000	113.685560 
2748.000000	113.695645 
2747.000000	113.696575 
2746.000000	113.694000 
2745.000000	113.689589 
2744.000000	113.684535 
2743.000000	113.682913 
2742.000000	113.687324 
2741.000000	113.693547 
2740.000000	113.699460 
2739.000000	113.707423 
2738.000000	113.715147 
2737.000000	113.712358 
2736.000000	113.694858 
2735.000000	113.670492 
2734.000000	113.645386 
2733.000000	113.615894 
2732.000000	113.578724 
2731.000000	113.538050 
2730.000000	113.497829 
2729.000000	113.459181 
2728.000000	113.426041 
2727.000000	113.401889 
2726.000000	113.381600 
2725.000000	113.358759 
2724.000000	113.338518 
2723.000000	113.330817 
2722.000000	113.334560 
2721.000000	113.341593 
2720.000000	113.352012 
2719.000000	113.372015 
2718.000000	113.401556 
2717.000000	113.433814 
2716.000000	113.464307 
2715.000000	113.490962 
2714.000000	113.512158 
2713.000000	113.529014 
2712.000000	113.547158 
2711.000000	113.568329 
2710.000000	113.586997 
2709.000000	113.596463 
2708.000000	113.597583 
2707.000000	113.597726 
2706.000000	113.603496 
2705.000000	113.615489 
2704.000000	113.630390 
2703.000000	113.646960 
2702.000000	113.666367 
2701.000000	113.687396 
2700.000000	113.706564 
2699.000000	113.722944 
2698.000000	113.737201 
2697.000000	113.747644 
2696.000000	113.752508 
2695.000000	113.755059 
2694.000000	113.758611 
2693.000000	113.760089 
2692.000000	113.756251 
2691.000000	113.752198 
2690.000000	113.753581 
2689.000000	113.757872 
2688.000000	113.761162 
2687.000000	113.766574 
2686.000000	113.776659 
2685.000000	113.787889 
2684.000000	113.801026 
2683.000000	113.824915 
2682.000000	113.860797 
2681.000000	113.896894 
2680.000000	113.925123 
2679.000000	113.949966 
2678.000000	113.975548 
2677.000000	113.998889 
2676.000000	114.021015 
2675.000000	114.047431 
2674.000000	114.076471 
2673.000000	114.100241 
2672.000000	114.118504 
2671.000000	114.138507 
2670.000000	114.161682 
2669.000000	114.183092 
2668.000000	114.201951 
2667.000000	114.220857 
2666.000000	114.237523 
2665.000000	114.247560 
2664.000000	114.252591 
2663.000000	114.258527 
2662.000000	114.267301 
2661.000000	114.277458 
2660.000000	114.288020 
2659.000000	114.298367 
2658.000000	114.306330 
2657.000000	114.311146 
2656.000000	114.314913 
2655.000000	114.319777 
2654.000000	114.325189 
2653.000000	114.329361 
2652.000000	114.331436 
2651.000000	114.332437 
2650.000000	114.332890 
2649.000000	114.331269 
2648.000000	114.326024 
2647.000000	114.318919 
2646.000000	114.313006 
2645.000000	114.308571 
2644.000000	114.305567 
2643.000000	114.307737 
2642.000000	114.318108 
2641.000000	114.331936 
2640.000000	114.342808 
2639.000000	114.351868 
2638.000000	114.362478 
2637.000000	114.371728 
2636.000000	114.378404 
2635.000000	114.390325 
2634.000000	114.411807 
2633.000000	114.433860 
2632.000000	114.449167 
2631.000000	114.463806 
2630.000000	114.483737 
2629.000000	114.503288 
2628.000000	114.517712 
2627.000000	114.531946 
2626.000000	114.547491 
2625.000000	114.556622 
2624.000000	114.556741 
2623.000000	114.556026 
2622.000000	114.559388 
2621.000000	114.563059 
2620.000000	114.565348 
2619.000000	114.569115 
2618.000000	114.572358 
2617.000000	114.569592 
2616.000000	114.562368 
2615.000000	114.557337 
2614.000000	114.555335 
2613.000000	114.551830 
2612.000000	114.545869 
2611.000000	114.539813 
2610.000000	114.533090 
2609.000000	114.525008 
2608.000000	114.519286 
2607.000000	114.519262 
2606.000000	114.522886 
2605.000000	114.526247 
2604.000000	114.529991 
2603.000000	114.537000 
2602.000000	114.547252 
2601.000000	114.556932 
2600.000000	114.563393 
2599.000000	114.568543 
2598.000000	114.576148 
2597.000000	114.586257 
2596.000000	114.596605 
2595.000000	114.608454 
2594.000000	114.624786 
2593.000000	114.642214 
2592.000000	114.653778 
2591.000000	114.659643 
2590.000000	114.666533 
2589.000000	114.677190 
2588.000000	114.689421 
2587.000000	114.704132 
2586.000000	114.723300 
2585.000000	114.742970 
2584.000000	114.758777 
2583.000000	114.773821 
2582.000000	114.790987 
2581.000000	114.804792 
2580.000000	114.811563 
2579.000000	114.818286 
2578.000000	114.830899 
2577.000000	114.843988 
2576.000000	114.853024 
2575.000000	114.863204 
2574.000000	114.877057 
2573.000000	114.886808 
2572.000000	114.888882 
2571.000000	114.890170 
2570.000000	114.893913 
2569.000000	114.894866 
2568.000000	114.893722 
2567.000000	114.897918 
2566.000000	114.906120 
2565.000000	114.908599 
2564.000000	114.904808 
2563.000000	114.904117 
2562.000000	114.908933 
2561.000000	114.912319 
2560.000000	114.911055 
2559.000000	114.908671 
2558.000000	114.906764 
2557.000000	114.903306 
2556.000000	114.898371 
2555.000000	114.894318 
2554.000000	114.891624 
2553.000000	114.888262 
2552.000000	114.882946 
2551.000000	114.876961 
2550.000000	114.872646 
2549.000000	114.870333 
2548.000000	114.868545 
2547.000000	114.867758 
2546.000000	114.870905 
2545.000000	114.877843 
2544.000000	114.884734 
2543.000000	114.889860 
2542.000000	114.895319 
2541.000000	114.900660 
2540.000000	114.902639 
2539.000000	114.901852 
2538.000000	114.902162 
2537.000000	114.903068 
2536.000000	114.901041 
2535.000000	114.898037 
2534.000000	114.898586 
2533.000000	114.901494 
2532.000000	114.903736 
2531.000000	114.908337 
2530.000000	114.917659 
2529.000000	114.924335 
2528.000000	114.922070 
2527.000000	114.916944 
2526.000000	114.917373 
2525.000000	114.920926 
2524.000000	114.923143 
2523.000000	114.927792 
2522.000000	114.937520 
2521.000000	114.946007 
2520.000000	114.948964 
2519.000000	114.951181 
2518.000000	114.954853 
2517.000000	114.955163 
2516.000000	114.953041 
2515.000000	114.956808 
2514.000000	114.966297 
2513.000000	114.971470 
2512.000000	114.969897 
2511.000000	114.969587 
2510.000000	114.973759 
2509.000000	114.977884 
2508.000000	114.981198 
2507.000000	114.987730 
2506.000000	114.995408 
2505.000000	114.997863 
2504.000000	114.995312 
2503.000000	114.993166 
2502.000000	114.992737 
2501.000000	114.992308 
2500.000000	114.993095 
2499.000000	114.996957 
2498.000000	115.001535 
2497.000000	115.003824 
2496.000000	115.004587 
2495.000000	115.006637 
2494.000000	115.010237 
2493.000000	115.012979 
2492.000000	115.013933 
2491.000000	115.015769 
2490.000000	115.021681 
2489.000000	115.030479 
2488.000000	115.038228 
2487.000000	115.044403 
2486.000000	115.052008 
2485.000000	115.060734 
2484.000000	115.066981 
2483.000000	115.071177 
2482.000000	115.077352 
2481.000000	115.085625 
2480.000000	115.092563 
2479.000000	115.098762 
2478.000000	115.106129 
2477.000000	115.111470 
2476.000000	115.111923 
2475.000000	115.111804 
2474.000000	115.114665 
2473.000000	115.114998 
2472.000000	115.108895 
2471.000000	115.103197 
2470.000000	115.103721 
2469.000000	115.104675 
2468.000000	115.101099 
2467.000000	115.098690 
2466.000000	115.101003 
2465.000000	115.100741 
2464.000000	115.093636 
2463.000000	115.086603 
2462.000000	115.083956 
2461.000000	115.080785 
2460.000000	115.074968 
2459.000000	115.071439 
2458.000000	115.070843 
2457.000000	115.067887 
2456.000000	115.063142 
2455.000000	115.062594 
2454.000000	115.066170 
2453.000000	115.068387 
2452.000000	115.069437 
2451.000000	115.073108 
2450.000000	115.077257 
2449.000000	115.076828 
2448.000000	115.073275 
2447.000000	115.070915 
2446.000000	115.068483 
2445.000000	115.062856 
2444.000000	115.057086 
2443.000000	115.056800 
2442.000000	115.061926 
2441.000000	115.066647 
2440.000000	115.066456 
2439.000000	115.062475 
2438.000000	115.059185 
2437.000000	115.059232 
2436.000000	115.062594 
2435.000000	115.069866 
2434.000000	115.082097 
2433.000000	115.096116 
2432.000000	115.106081 
2431.000000	115.111660 
2430.000000	115.116953 
2429.000000	115.121865 
2428.000000	115.123653 
2427.000000	115.125465 
2426.000000	115.132451 
2425.000000	115.141129 
2424.000000	115.144371 
2423.000000	115.144014 
2422.000000	115.145874 
2421.000000	115.147590 
2420.000000	115.145659 
2419.000000	115.145516 
2418.000000	115.151906 
2417.000000	115.157818 
2416.000000	115.156388 
2415.000000	115.152454 
2414.000000	115.150451 
2413.000000	115.144157 
2412.000000	115.129995 
2411.000000	115.116047 
2410.000000	115.107297 
2409.000000	115.097594 
2408.000000	115.084171 
2407.000000	115.073108 
2406.000000	115.064835 
2405.000000	115.050840 
2404.000000	115.030241 
2403.000000	115.011715 
2402.000000	114.997911 
2401.000000	114.982223 
2400.000000	114.962267 
2399.000000	114.942932 
2398.000000	114.924669 
2397.000000	114.904308 
2396.000000	114.882802 
2395.000000	114.864826 
2394.000000	114.849162 
2393.000000	114.833068 
2392.000000	114.817118 
2391.000000	114.804887 
2390.000000	114.792871 
2389.000000	114.775204 
2388.000000	114.745736 
2387.000000	114.703011 
2386.000000	114.643216 
2385.000000	114.562439 
2384.000000	114.455175 
2383.000000	114.322948 
2382.000000	114.169478 
2381.000000	113.997340 
2380.000000	113.805890 
2379.000000	113.601970 
2378.000000	113.391208 
2377.000000	113.164329 
2376.000000	112.905120 
2375.000000	112.615299 
2374.000000	112.304282 
2373.000000	111.963725 
2372.000000	111.582589 
2371.000000	111.183643 
2370.000000	110.795140 
2369.000000	110.410475 
2368.000000	110.014057 
2367.000000	109.634685 
2366.000000	109.300708 
2365.000000	108.997821 
2364.000000	108.710002 
2363.000000	108.477330 
2362.000000	108.333158 
2361.000000	108.254384 
2360.000000	108.225774 
2359.000000	108.292102 
2358.000000	108.488273 
2357.000000	108.778738 
2356.000000	109.117650 
2355.000000	109.508013 
2354.000000	109.959101 
2353.000000	110.446524 
2352.000000	110.935688 
2351.000000	111.394762 
2350.000000	111.759233 
2349.000000	111.935949 
2348.000000	111.866450 
2347.000000	111.575341 
2346.000000	111.154747 
2345.000000	110.721802 
2344.000000	110.375380 
2343.000000	110.165286 
2342.000000	110.081934 
2341.000000	110.086417 
2340.000000	110.138559 
2339.000000	110.211348 
2338.000000	110.284876 
2337.000000	110.353231 
2336.000000	110.421705 
2335.000000	110.495853 
2334.000000	110.568571 
2333.000000	110.626602 
2332.000000	110.670161 
2331.000000	110.718703 
2330.000000	110.798501 
2329.000000	110.911202 
2328.000000	111.039757 
2327.000000	111.170601 
2326.000000	111.305713 
2325.000000	111.440443 
2324.000000	111.565756 
2323.000000	111.692738 
2322.000000	111.845231 
2321.000000	112.022280 
2320.000000	112.200832 
2319.000000	112.373328 
2318.000000	112.546515 
2317.000000	112.707209 
2316.000000	112.829828 
2315.000000	112.915253 
2314.000000	112.986254 
2313.000000	113.053846 
2312.000000	113.120770 
2311.000000	113.200497 
2310.000000	113.302755 
2309.000000	113.412809 
2308.000000	113.517022 
2307.000000	113.623189 
2306.000000	113.737320 
2305.000000	113.840198 
2304.000000	113.915610 
2303.000000	113.973188 
2302.000000	114.028859 
2301.000000	114.082646 
2300.000000	114.134407 
2299.000000	114.191746 
2298.000000	114.253640 
2297.000000	114.307403 
2296.000000	114.350438 
2295.000000	114.394640 
2294.000000	114.444136 
2293.000000	114.490485 
2292.000000	114.530062 
2291.000000	114.569354 
2290.000000	114.611434 
2289.000000	114.653158 
2288.000000	114.693522 
2287.000000	114.733600 
2286.000000	114.769291 
2285.000000	114.795899 
2284.000000	114.815211 
2283.000000	114.831089 
2282.000000	114.842152 
2281.000000	114.845299 
2280.000000	114.842176 
2279.000000	114.838838 
2278.000000	114.838504 
2277.000000	114.839625 
2276.000000	114.839625 
2275.000000	114.840984 
2274.000000	114.847564 
2273.000000	114.856529 
2272.000000	114.860749 
2271.000000	114.861416 
2270.000000	114.867115 
2269.000000	114.878726 
2268.000000	114.887881 
2267.000000	114.891791 
2266.000000	114.895629 
2265.000000	114.899539 
2264.000000	114.899420 
2263.000000	114.898896 
2262.000000	114.904618 
2261.000000	114.912152 
2260.000000	114.914488 
2259.000000	114.917445 
2258.000000	114.928054 
2257.000000	114.938354 
2256.000000	114.938831 
2255.000000	114.936041 
2254.000000	114.938497 
2253.000000	114.939928 
2252.000000	114.934253 
2251.000000	114.930176 
2250.000000	114.934206 
2249.000000	114.937639 
2248.000000	114.934611 
2247.000000	114.933729 
2246.000000	114.939689 
2245.000000	114.944219 
2244.000000	114.944005 
2243.000000	114.947175 
2242.000000	114.955520 
2241.000000	114.960646 
2240.000000	114.961338 
2239.000000	114.965629 
2238.000000	114.974093 
2237.000000	114.979028 
2236.000000	114.980387 
2235.000000	114.985585 
2234.000000	114.994454 
2233.000000	115.000557 
2232.000000	115.003609 
2231.000000	115.008807 
2230.000000	115.016746 
2229.000000	115.023183 
2228.000000	115.026259 
2227.000000	115.028095 
2226.000000	115.030479 
2225.000000	115.032958 
2224.000000	115.035057 
2223.000000	115.039062 
2222.000000	115.047264 
2221.000000	115.055608 
2220.000000	115.056204 
2219.000000	115.048217 
2218.000000	115.039563 
2217.000000	115.034461 
2216.000000	115.030241 
2215.000000	115.027308 
2214.000000	115.029621 
2213.000000	115.032863 
2212.000000	115.028810 
2211.000000	115.020465 
2210.000000	115.016818 
2209.000000	115.014934 
2208.000000	115.006256 
2207.000000	114.995551 
2206.000000	114.992642 
2205.000000	114.991521 
2204.000000	114.981818 
2203.000000	114.969372 
2202.000000	114.964556 
2201.000000	114.961767 
2200.000000	114.952540 
2199.000000	114.943671 
2198.000000	114.943027 
2197.000000	114.942765 
2196.000000	114.934492 
2195.000000	114.923906 
2194.000000	114.916491 
2193.000000	114.906811 
2192.000000	114.893531 
2191.000000	114.885640 
2190.000000	114.883971 
2189.000000	114.877772 
2188.000000	114.865469 
2187.000000	114.857435 
2186.000000	114.855217 
2185.000000	114.848661 
2184.000000	114.834666 
2183.000000	114.820456 
2182.000000	114.807057 
2181.000000	114.788842 
2180.000000	114.767694 
2179.000000	114.751386 
2178.000000	114.739775 
2177.000000	114.726090 
2176.000000	114.708828 
2175.000000	114.691686 
2174.000000	114.675998 
2173.000000	114.660215 
2172.000000	114.645099 
2171.000000	114.633631 
2170.000000	114.626550 
2169.000000	114.619946 
2168.000000	114.609766 
2167.000000	114.599108 
2166.000000	114.595079 
2165.000000	114.597344 
2164.000000	114.598250 
2163.000000	114.597034 
2162.000000	114.600992 
2161.000000	114.608860 
2160.000000	114.611577 
2159.000000	114.609861 
2158.000000	114.613103 
2157.000000	114.620971 
2156.000000	114.624810 
2155.000000	114.626884 
2154.000000	114.635491 
2153.000000	114.645338 
2152.000000	114.645123 
2151.000000	114.639544 
2150.000000	114.640212 
2149.000000	114.644479 
2148.000000	114.644742 
2147.000000	114.646363 
2146.000000	114.654397 
2145.000000	114.658236 
2144.000000	114.651632 
2143.000000	114.647245 
2142.000000	114.653420 
2141.000000	114.657497 
2140.000000	114.650940 
2139.000000	114.644765 
2138.000000	114.646244 
2137.000000	114.644932 
2136.000000	114.635610 
2135.000000	114.628958 
2134.000000	114.630007 
2133.000000	114.629817 
2132.000000	114.625620 
2131.000000	114.625453 
2130.000000	114.629054 
2129.000000	114.625787 
2128.000000	114.613676 
2127.000000	114.601540 
2126.000000	114.593410 
2125.000000	114.585709 
2124.000000	114.577460 
2123.000000	114.570593 
2122.000000	114.563155 
2121.000000	114.551305 
2120.000000	114.536547 
2119.000000	114.524221 
2118.000000	114.516305 
2117.000000	114.509367 
2116.000000	114.499449 
2115.000000	114.488434 
2114.000000	114.480876 
2113.000000	114.474534 
2112.000000	114.461350 
2111.000000	114.441704 
2110.000000	114.425253 
2109.000000	114.414143 
2108.000000	114.400196 
2107.000000	114.382362 
2106.000000	114.368867 
2105.000000	114.358448 
2104.000000	114.341664 
2103.000000	114.321208 
2102.000000	114.308285 
2101.000000	114.299225 
2100.000000	114.282131 
2099.000000	114.261031 
2098.000000	114.246773 
2097.000000	114.231872 
2096.000000	114.204144 
2095.000000	114.173221 
2094.000000	114.154171 
2093.000000	114.139437 
2092.000000	114.115715 
2091.000000	114.089441 
2090.000000	114.070272 
2089.000000	114.049530 
2088.000000	114.019608 
2087.000000	113.991665 
2086.000000	113.973307 
2085.000000	113.953137 
2084.000000	113.923931 
2083.000000	113.896417 
2082.000000	113.876676 
2081.000000	113.855123 
2080.000000	113.827943 
2079.000000	113.804626 
2078.000000	113.788652 
2077.000000	113.771724 
2076.000000	113.752174 
2075.000000	113.737916 
2074.000000	113.730239 
2073.000000	113.722085 
2072.000000	113.712239 
2071.000000	113.705348 
2070.000000	113.700461 
2069.000000	113.691806 
2068.000000	113.679075 
2067.000000	113.666200 
2066.000000	113.654041 
2065.000000	113.640022 
2064.000000	113.623738 
2063.000000	113.609337 
2062.000000	113.599658 
2061.000000	113.590788 
2060.000000	113.575553 
2059.000000	113.555479 
2058.000000	113.539028 
2057.000000	113.525485 
2056.000000	113.504338 
2055.000000	113.475537 
2054.000000	113.451337 
2053.000000	113.433504 
2052.000000	113.411092 
2051.000000	113.384151 
2050.000000	113.364386 
2049.000000	113.350129 
2048.000000	113.328671 
2047.000000	113.303327 
2046.000000	113.287520 
2045.000000	113.276124 
2044.000000	113.255357 
2043.000000	113.232946 
2042.000000	113.224530 
2041.000000	113.223576 
2040.000000	113.216471 
2039.000000	113.211989 
2038.000000	113.223052 
2037.000000	113.240408 
2036.000000	113.252663 
2035.000000	113.270115 
2034.000000	113.300871 
2033.000000	113.330507 
2032.000000	113.347697 
2031.000000	113.364624 
2030.000000	113.390946 
2029.000000	113.416552 
2028.000000	113.434815 
2027.000000	113.455605 
2026.000000	113.482594 
2025.000000	113.504695 
2024.000000	113.517928 
2023.000000	113.531756 
2022.000000	113.549947 
2021.000000	113.565444 
2020.000000	113.576698 
2019.000000	113.590097 
2018.000000	113.606095 
2017.000000	113.618445 
2016.000000	113.626027 
2015.000000	113.634371 
2014.000000	113.646101 
2013.000000	113.658237 
2012.000000	113.667321 
2011.000000	113.674092 
2010.000000	113.681316 
2009.000000	113.688802 
2008.000000	113.693380 
2007.000000	113.695931 
2006.000000	113.702344 
2005.000000	113.712263 
2004.000000	113.717818 
2003.000000	113.718843 
2002.000000	113.724565 
2001.000000	113.734197 
2000.000000	113.736152 
1999.000000	113.732051 
1998.000000	113.736438 
1997.000000	113.748002 
1996.000000	113.750767 
1995.000000	113.745713 
1994.000000	113.746833 
1993.000000	113.748884 
1992.000000	113.736820 
1991.000000	113.721990 
1990.000000	113.725996 
1989.000000	113.739347 
1988.000000	113.739466 
1987.000000	113.733625 
1986.000000	113.740396 
1985.000000	113.749289 
1984.000000	113.742685 
1983.000000	113.732409 
1982.000000	113.735961 
1981.000000	113.742899 
1980.000000	113.738775 
1979.000000	113.733744 
1978.000000	113.738036 
1977.000000	113.740205 
1976.000000	113.733053 
1975.000000	113.730263 
1974.000000	113.738155 
1973.000000	113.742566 
1972.000000	113.736295 
1971.000000	113.731098 
1970.000000	113.732957 
1969.000000	113.731670 
1968.000000	113.721227 
1967.000000	113.709545 
1966.000000	113.703584 
1965.000000	113.700985 
1964.000000	113.698720 
1963.000000	113.697934 
1962.000000	113.699150 
1961.000000	113.699483 
1960.000000	113.696646 
1959.000000	113.692283 
1958.000000	113.690328 
1957.000000	113.690352 
1956.000000	113.686418 
1955.000000	113.677954 
1954.000000	113.673090 
1953.000000	113.673973 
1952.000000	113.671040 
1951.000000	113.661789 
1950.000000	113.657760 
1949.000000	113.661456 
1948.000000	113.660311 
1947.000000	113.653469 
1946.000000	113.655591 
1945.000000	113.664627 
1944.000000	113.660025 
1943.000000	113.641214 
1942.000000	113.630580 
1941.000000	113.633775 
1940.000000	113.635778 
1939.000000	113.636803 
1938.000000	113.650178 
1937.000000	113.668060 
1936.000000	113.672447 
1935.000000	113.672256 
1934.000000	113.685250 
1933.000000	113.699316 
1932.000000	113.697075 
1931.000000	113.694715 
1930.000000	113.711619 
1929.000000	113.730549 
1928.000000	113.731431 
1927.000000	113.730192 
1926.000000	113.743758 
1925.000000	113.752937 
1924.000000	113.738226 
1923.000000	113.716220 
1922.000000	113.709259 
1921.000000	113.711190 
1920.000000	113.708424 
1919.000000	113.702702 
1918.000000	113.696956 
1917.000000	113.685655 
1916.000000	113.671779 
1915.000000	113.666844 
1914.000000	113.670635 
1913.000000	113.670492 
1912.000000	113.662171 
1911.000000	113.651871 
1910.000000	113.639545 
1909.000000	113.618636 
1908.000000	113.590598 
1907.000000	113.565826 
1906.000000	113.549804 
1905.000000	113.537120 
1904.000000	113.519430 
1903.000000	113.497376 
1902.000000	113.477849 
1901.000000	113.460254 
1900.000000	113.434886 
1899.000000	113.402128 
1898.000000	113.376569 
1897.000000	113.359975 
1896.000000	113.334155 
1895.000000	113.296270 
1894.000000	113.268780 
1893.000000	113.257932 
1892.000000	113.238596 
1891.000000	113.197326 
1890.000000	113.150954 
1889.000000	113.109946 
1888.000000	113.068008 
1887.000000	113.033246 
1886.000000	113.021373 
1885.000000	113.016533 
1884.000000	112.989687 
1883.000000	112.951564 
1882.000000	112.932777 
1881.000000	112.925982 
1880.000000	112.905025 
1879.000000	112.881517 
1878.000000	112.880015 
1877.000000	112.884902 
1876.000000	112.870454 
1875.000000	112.854075 
1874.000000	112.859964 
1873.000000	112.871837 
1872.000000	112.868642 
1871.000000	112.865567 
1870.000000	112.872910 
1869.000000	112.867689 
1868.000000	112.844419 
1867.000000	112.839126 
1866.000000	112.868046 
1865.000000	112.899994 
1864.000000	112.913799 
1863.000000	112.928986 
1862.000000	112.958431 
1861.000000	112.985038 
1860.000000	112.998867 
1859.000000	113.014054 
1858.000000	113.039183 
1857.000000	113.063788 
1856.000000	113.080167 
1855.000000	113.093924 
1854.000000	113.110184 
1853.000000	113.125538 
1852.000000	113.134574 
1851.000000	113.139152 
1850.000000	113.146734 
1849.000000	113.157010 
1848.000000	113.157606 
1847.000000	113.143634 
1846.000000	113.125944 
1845.000000	113.106250 
1844.000000	113.070273 
1843.000000	113.027644 
1842.000000	113.014888 
1841.000000	113.034391 
1840.000000	113.040852 
1839.000000	113.016986 
1838.000000	112.996077 
1837.000000	112.987613 
1836.000000	112.959957 
1835.000000	112.917900 
1834.000000	112.906217 
1833.000000	112.919497 
1832.000000	112.902593 
1831.000000	112.848997 
1830.000000	112.803721 
1829.000000	112.772035 
1828.000000	112.725090 
1827.000000	112.678313 
1826.000000	112.661743 
1825.000000	112.641024 
1824.000000	112.575411 
1823.000000	112.504148 
1822.000000	112.476420 
1821.000000	112.453746 
1820.000000	112.385797 
1819.000000	112.304496 
1818.000000	112.250995 
1817.000000	112.191343 
1816.000000	112.095808 
1815.000000	112.006425 
1814.000000	111.952137 
1813.000000	111.884784 
1812.000000	111.769175 
1811.000000	111.642694 
1810.000000	111.539053 
1809.000000	111.435794 
1808.000000	111.314702 
1807.000000	111.195969 
1806.000000	111.088562 
1805.000000	110.971260 
1804.000000	110.835075 
1803.000000	110.691165 
1802.000000	110.536360 
1801.000000	110.355305 
1800.000000	110.153341 
1799.000000	109.958100 
1798.000000	109.785008 
1797.000000	109.623813 
1796.000000	109.451532 
1795.000000	109.261298 
1794.000000	109.053015 
1793.000000	108.806848 
1792.000000	108.492183 
1791.000000	108.144640 
1790.000000	107.855391 
1789.000000	107.650923 
1788.000000	107.439231 
1787.000000	107.150554 
1786.000000	106.817030 
1785.000000	106.479668 
1784.000000	106.109046 
1783.000000	105.705022 
1782.000000	105.310630 
1781.000000	104.890012 
1780.000000	104.358577 
1779.000000	103.777360 
1778.000000	103.279542 
1777.000000	102.811551 
1776.000000	102.234959 
1775.000000	101.593303 
1774.000000	100.947761 
1773.000000	100.083065 
1772.000000	98.858880  
1771.000000	97.573614  
1770.000000	96.580672  
1769.000000	95.654416  
1768.000000	94.385218  
1767.000000	92.834734  
1766.000000	91.431379  
1765.000000	90.180253  
1764.000000	88.696861  
1763.000000	86.635923  
1762.000000	84.031629  
1761.000000	81.152677  
1760.000000	78.363132  
1759.000000	75.653719  
1758.000000	72.366905  
1757.000000	67.873334  
1756.000000	62.628078  
1755.000000	57.743501  
1754.000000	53.403663  
1753.000000	48.558878  
1752.000000	42.378878  
1751.000000	35.220265  
1750.000000	28.019094  
1749.000000	21.534442  
1748.000000	16.374897  
1747.000000	12.788724  
1746.000000	10.364937  
1745.000000	8.550381   
1744.000000	7.412123   
1743.000000	7.068562   
1742.000000	7.205414   
1741.000000	7.756161   
1740.000000	9.403920   
1739.000000	12.122058  
1738.000000	14.731216  
1737.000000	16.740345  
1736.000000	19.809222  
1735.000000	25.749039  
1734.000000	34.080553  
1733.000000	42.363834  
1732.000000	48.852133  
1731.000000	53.780484  
1730.000000	58.438134  
1729.000000	63.365912  
1728.000000	67.973685  
1727.000000	71.643352  
1726.000000	74.629259  
1725.000000	77.533602  
1724.000000	80.478763  
1723.000000	83.117556  
1722.000000	85.173869  
1721.000000	86.689162  
1720.000000	87.985324  
1719.000000	89.423418  
1718.000000	91.126966  
1717.000000	92.819786  
1716.000000	94.193029  
1715.000000	95.163059  
1714.000000	95.885372  
1713.000000	96.492862  
1712.000000	97.048234  
1711.000000	97.542953  
1710.000000	97.987508  
1709.000000	98.371219  
1708.000000	98.695540  
1707.000000	98.956990  
1706.000000	99.168300  
1705.000000	99.315834  
1704.000000	99.390363  
1703.000000	99.420309  
1702.000000	99.497985  
1701.000000	99.699091  
1700.000000	100.002384 
1699.000000	100.324249 
1698.000000	100.660276 
1697.000000	101.099777 
1696.000000	101.693058 
1695.000000	102.340722 
1694.000000	102.864503 
1693.000000	103.201246 
1692.000000	103.476190 
1691.000000	103.824305 
1690.000000	104.205322 
1689.000000	104.503130 
1688.000000	104.724407 
1687.000000	104.943394 
1686.000000	105.147075 
1685.000000	105.315971 
1684.000000	105.530953 
1683.000000	105.824565 
1682.000000	106.062364 
1681.000000	106.166696 
1680.000000	106.256437 
1679.000000	106.425118 
1678.000000	106.576251 
1677.000000	106.651258 
1676.000000	106.746697 
1675.000000	106.904506 
1674.000000	107.011699 
1673.000000	107.028365 
1672.000000	107.053279 
1671.000000	107.106256 
1670.000000	107.075119 
1669.000000	106.935691 
1668.000000	106.800603 
1667.000000	106.720185 
1666.000000	106.612610 
1665.000000	106.402921 
1664.000000	106.073999 
1663.000000	105.611300 
1662.000000	105.042052 
1661.000000	104.493141 
1660.000000	104.071998 
1659.000000	103.748512 
1658.000000	103.447890 
1657.000000	103.184175 
1656.000000	102.995061 
1655.000000	102.857971 
1654.000000	102.751445 
1653.000000	102.730417 
1652.000000	102.831506 
1651.000000	102.998805 
1650.000000	103.152775 
1649.000000	103.308176 
1648.000000	103.542637 
1647.000000	103.884458 
1646.000000	104.258680 
1645.000000	104.582214 
1644.000000	104.879760 
1643.000000	105.264091 
1642.000000	105.787539 
1641.000000	106.383848 
1640.000000	106.962227 
1639.000000	107.495379 
1638.000000	108.002948 
1637.000000	108.512401 
1636.000000	109.035205 
1635.000000	109.521698 
1634.000000	109.869599 
1633.000000	110.047698 
1632.000000	110.157227 
1631.000000	110.297846 
1630.000000	110.442781 
1629.000000	110.538196 
1628.000000	110.614061 
1627.000000	110.710310 
1626.000000	110.784268 
1625.000000	110.809397 
1624.000000	110.842061 
1623.000000	110.920763 
1622.000000	110.994100 
1621.000000	111.036777 
1620.000000	111.097741 
1619.000000	111.192107 
1618.000000	111.262631 
1617.000000	111.294412 
1616.000000	111.339688 
1615.000000	111.413908 
1614.000000	111.473822 
1613.000000	111.509919 
1612.000000	111.558341 
1611.000000	111.620402 
1610.000000	111.659884 
1609.000000	111.673951 
1608.000000	111.693286 
1607.000000	111.723184 
1606.000000	111.743927 
1605.000000	111.753344 
1604.000000	111.767745 
1603.000000	111.789202 
1602.000000	111.805725 
1601.000000	111.811947 
1600.000000	111.817693 
1599.000000	111.832523 
1598.000000	111.849379 
1597.000000	111.851406 
1596.000000	111.840033 
1595.000000	111.834263 
1594.000000	111.836385 
1593.000000	111.828422 
1592.000000	111.812472 
1591.000000	111.810231 
1590.000000	111.814928 
1589.000000	111.799168 
1588.000000	111.774325 
1587.000000	111.775326 
1586.000000	111.789155 
1585.000000	111.776852 
1584.000000	111.754035 
1583.000000	111.759591 
1582.000000	111.771345 
1581.000000	111.753320 
1580.000000	111.742663 
1579.000000	111.777496 
1578.000000	111.801028 
1577.000000	111.756491 
1576.000000	111.701536 
1575.000000	111.707520 
1574.000000	111.739444 
1573.000000	111.745381 
1572.000000	111.756491 
1571.000000	111.795186 
1570.000000	111.803150 
1569.000000	111.755800 
1568.000000	111.724853 
1567.000000	111.750340 
1566.000000	111.772894 
1565.000000	111.752462 
1564.000000	111.735558 
1563.000000	111.758661 
1562.000000	111.789178 
1561.000000	111.794376 
1560.000000	111.779665 
1559.000000	111.746859 
1558.000000	111.691164 
1557.000000	111.639165 
1556.000000	111.625170 
1555.000000	111.636686 
1554.000000	111.634778 
1553.000000	111.611294 
1552.000000	111.590218 
1551.000000	111.584496 
1550.000000	111.575031 
1549.000000	111.540842 
1548.000000	111.506032 
1547.000000	111.514258 
1546.000000	111.539959 
1545.000000	111.503648 
1544.000000	111.418485 
1543.000000	111.393809 
1542.000000	111.430549 
1541.000000	111.389970 
1540.000000	111.245059 
1539.000000	111.150979 
1538.000000	111.179757 
1537.000000	111.215329 
1536.000000	111.185288 
1535.000000	111.154770 
1534.000000	111.138296 
1533.000000	111.065840 
1532.000000	110.966444 
1531.000000	110.945653 
1530.000000	110.976338 
1529.000000	110.945200 
1528.000000	110.871124 
1527.000000	110.842251 
1526.000000	110.817432 
1525.000000	110.727357 
1524.000000	110.652875 
1523.000000	110.664749 
1522.000000	110.646224 
1521.000000	110.508346 
1520.000000	110.383319 
1519.000000	110.385847 
1518.000000	110.394215 
1517.000000	110.282230 
1516.000000	110.145354 
1515.000000	110.106062 
1514.000000	110.104012 
1513.000000	110.041785 
1512.000000	109.955930 
1511.000000	109.918045 
1510.000000	109.900856 
1509.000000	109.830856 
1508.000000	109.684705 
1507.000000	109.496021 
1506.000000	109.318375 
1505.000000	109.193992 
1504.000000	109.130930 
1503.000000	109.101915 
1502.000000	109.065270 
1501.000000	108.987140 
1500.000000	108.871459 
1499.000000	108.752989 
1498.000000	108.631396 
1497.000000	108.449745 
1496.000000	108.208847 
1495.000000	108.011364 
1494.000000	107.913947 
1493.000000	107.818436 
1492.000000	107.635021 
1491.000000	107.405710 
1490.000000	107.175755 
1489.000000	106.878876 
1488.000000	106.512451 
1487.000000	106.198573 
1486.000000	105.979609 
1485.000000	105.707287 
1484.000000	105.347919 
1483.000000	105.004119 
1482.000000	104.618573 
1481.000000	104.033589 
1480.000000	103.401184 
1479.000000	102.929949 
1478.000000	102.361154 
1477.000000	101.377248 
1476.000000	100.294137 
1475.000000	99.345064  
1474.000000	97.707986  
1473.000000	94.474148  
1472.000000	90.209007  
1471.000000	86.250782  
1470.000000	82.944750  
1469.000000	79.750108  
1468.000000	76.550269  
1467.000000	73.640322  
1466.000000	71.026229  
1465.000000	68.716764  
1464.000000	67.165470  
1463.000000	66.628718  
1462.000000	66.659426  
1461.000000	66.755604  
1460.000000	66.914057  
1459.000000	67.168021  
1458.000000	67.310190  
1457.000000	67.367529  
1456.000000	67.717766  
1455.000000	68.463206  
1454.000000	69.274950  
1453.000000	69.945645  
1452.000000	70.588374  
1451.000000	71.193528  
1450.000000	71.508646  
1449.000000	71.452665  
1448.000000	71.182107  
1447.000000	70.789718  
1446.000000	70.231485  
1445.000000	69.537782  
1444.000000	68.695855  
1443.000000	67.550706  
1442.000000	65.995025  
1441.000000	64.195728  
1440.000000	62.314939  
1439.000000	60.319185  
1438.000000	58.242297  
1437.000000	56.538939  
1436.000000	55.907726  
1435.000000	56.746435  
1434.000000	58.901214  
1433.000000	61.934614  
1432.000000	65.555286  
1431.000000	69.633269  
1430.000000	73.849368  
1429.000000	77.606773  
1428.000000	80.431628  
1427.000000	82.353544  
1426.000000	83.755922  
1425.000000	84.949588  
1424.000000	85.951137  
1423.000000	86.640048  
1422.000000	87.028551  
1421.000000	87.359118  
1420.000000	87.918138  
1419.000000	88.833904  
1418.000000	90.005874  
1417.000000	91.276097  
1416.000000	92.520809  
1415.000000	93.748641  
1414.000000	94.981884  
1413.000000	96.219635  
1412.000000	97.360420  
1411.000000	98.309636  
1410.000000	99.015808  
1409.000000	99.494242  
1408.000000	99.748706  
1407.000000	99.735164  
1406.000000	99.384284  
1405.000000	98.685479  
1404.000000	97.735452  
1403.000000	96.694064  
1402.000000	95.699167  
1401.000000	94.814658  
1400.000000	94.071531  
1399.000000	93.509554  
1398.000000	93.147993  
1397.000000	92.930221  
1396.000000	92.754983  
1395.000000	92.580175  
1394.000000	92.502784  
1393.000000	92.686223  
1392.000000	93.196105  
1391.000000	93.937683  
1390.000000	94.819474  
1389.000000	95.857143  
1388.000000	97.017073  
1387.000000	98.061299  
1386.000000	98.712730  
1385.000000	98.908567  
1384.000000	98.729515  
1383.000000	98.219656  
1382.000000	97.404432  
1381.000000	96.387529  
1380.000000	95.278620  
1379.000000	94.126653  
1378.000000	92.999029  
1377.000000	91.974067  
1376.000000	91.013550  
1375.000000	90.001702  
1374.000000	88.973879  
1373.000000	88.122534  
1372.000000	87.547659  
1371.000000	87.143254  
1370.000000	86.769914  
1369.000000	86.382317  
1368.000000	85.983991  
1367.000000	85.566210  
1366.000000	85.144782  
1365.000000	84.743237  
1364.000000	84.376168  
1363.000000	84.072279  
1362.000000	83.923053  
1361.000000	83.992433  
1360.000000	84.256458  
1359.000000	84.628415  
1358.000000	85.065555  
1357.000000	85.551714  
1356.000000	86.070489  
1355.000000	86.585426  
1354.000000	87.085580  
1353.000000	87.578392  
1352.000000	88.082981  
1351.000000	88.612604  
1350.000000	89.178943  
1349.000000	89.785623  
1348.000000	90.431380  
1347.000000	91.106367  
1346.000000	91.796445  
1345.000000	92.484807  
1344.000000	93.148469  
1343.000000	93.751597  
1342.000000	94.270348  
1341.000000	94.710803  
1340.000000	95.080304  
1339.000000	95.347571  
1338.000000	95.484352  
1337.000000	95.516920  
1336.000000	95.504808  
1335.000000	95.463800  
1334.000000	95.375323  
1333.000000	95.226287  
1332.000000	95.016694  
1331.000000	94.725227  
1330.000000	94.334173  
1329.000000	93.852066  
1328.000000	93.311548  
1327.000000	92.736196  
1326.000000	92.153072  
1325.000000	91.595959  
1324.000000	91.104102  
1323.000000	90.702009  
1322.000000	90.404415  
1321.000000	90.214538  
1320.000000	90.125107  
1319.000000	90.115237  
1318.000000	90.155029  
1317.000000	90.212345  
1316.000000	90.258646  
1315.000000	90.266156  
1314.000000	90.208077  
1313.000000	90.068769  
1312.000000	89.862370  
1311.000000	89.627647  
1310.000000	89.413332  
1309.000000	89.265632  
1308.000000	89.221882  
1307.000000	89.286518  
1306.000000	89.421558  
1305.000000	89.576196  
1304.000000	89.717626  
1303.000000	89.836835  
1302.000000	89.925169  
1301.000000	89.984297  
1300.000000	90.019249  
1299.000000	90.035367  
1298.000000	90.022850  
1297.000000	89.982604  
1296.000000	89.924216  
1295.000000	89.853692  
1294.000000	89.756107  
1293.000000	89.609932  
1292.000000	89.393877  
1291.000000	89.082884  
1290.000000	88.649344  
1289.000000	88.078665  
1288.000000	87.381124  
1287.000000	86.586689  
1286.000000	85.735893  
1285.000000	84.870147  
1284.000000	84.029316  
1283.000000	83.244967  
1282.000000	82.541131  
1281.000000	81.927323  
1280.000000	81.401824  
1279.000000	80.947804  
1278.000000	80.531358  
1277.000000	80.107498  
1276.000000	79.638814  
1275.000000	79.111146  
1274.000000	78.521847  
1273.000000	77.879452  
1272.000000	77.210569  
1271.000000	76.563191  
1270.000000	75.972247  
1269.000000	75.448346  
1268.000000	74.993777  
1267.000000	74.617266  
1266.000000	74.318099  
1265.000000	74.082255  
1264.000000	73.899912  
1263.000000	73.761081  
1262.000000	73.633480  
1261.000000	73.468184  
1260.000000	73.235678  
1259.000000	72.925901  
1258.000000	72.529768  
1257.000000	72.035455  
1256.000000	71.457815  
1255.000000	70.820689  
1254.000000	70.142602  
1253.000000	69.431257  
1252.000000	68.716764  
1251.000000	68.030214  
1250.000000	67.399263  
1249.000000	66.845369  
1248.000000	66.409111  
1247.000000	66.123437  
1246.000000	66.003870  
1245.000000	66.046881  
1244.000000	66.247606  
1243.000000	66.587138  
1242.000000	67.035531  
1241.000000	67.562747  
1240.000000	68.152284  
1239.000000	68.787956  
1238.000000	69.449305  
1237.000000	70.114064  
1236.000000	70.765900  
1235.000000	71.389627  
1234.000000	71.970272  
1233.000000	72.492551  
1232.000000	72.945594  
1231.000000	73.319435  
1230.000000	73.606777  
1229.000000	73.796725  
1228.000000	73.886013  
1227.000000	73.872876  
1226.000000	73.765778  
1225.000000	73.566246  
1224.000000	73.291540  
1223.000000	72.956204  
1222.000000	72.579741  
1221.000000	72.154188  
1220.000000	71.683359  
1219.000000	71.167254  
1218.000000	70.613837  
1217.000000	70.009207  
1216.000000	69.358539  
1215.000000	68.671417  
1214.000000	67.953634  
1213.000000	67.187476  
1212.000000	66.370248  
1211.000000	65.509963  
1210.000000	64.603352  
1209.000000	63.628578  
1208.000000	62.583422  
1207.000000	61.481428  
1206.000000	60.327124  
1205.000000	59.115362  
1204.000000	57.873439  
1203.000000	56.646490  
1202.000000	55.472970  
1201.000000	54.383015  
1200.000000	53.438162  
1199.000000	52.709317  
1198.000000	52.246522  
1197.000000	52.085113  
1196.000000	52.262878  
1195.000000	52.805805  
1194.000000	53.690624  
1193.000000	54.870319  
1192.000000	56.281018  
1191.000000	57.839035  
1190.000000	59.419751  
1189.000000	60.887551  
1188.000000	62.122464  
1187.000000	63.022875  
1186.000000	63.509273  
1185.000000	63.533997  
1184.000000	63.099884  
1183.000000	62.248063  
1182.000000	61.047053  
1181.000000	59.576582  
1180.000000	57.932949  
1179.000000	56.225585  
1178.000000	54.559993  
1177.000000	53.014612  
1176.000000	51.651406  
1175.000000	50.535702  
1174.000000	49.720478  
1173.000000	49.223470  
1172.000000	49.037170  
1171.000000	49.166131  
1170.000000	49.600887  
1169.000000	50.315833  
1168.000000	51.268911  
1167.000000	52.456116  
1166.000000	53.850054  
1165.000000	55.413222  
1164.000000	57.087278  
1163.000000	58.856415  
1162.000000	60.685777  
1161.000000	62.536263  
1160.000000	64.368057  
1159.000000	66.180372  
1158.000000	67.965841  
1157.000000	69.709515  
1156.000000	71.403717  
1155.000000	73.058199  
1154.000000	74.666976  
1153.000000	76.205635  
1152.000000	77.652668  
1151.000000	78.996443  
1150.000000	80.212330  
1149.000000	81.271362  
1148.000000	82.159471  
1147.000000	82.880973  
1146.000000	83.433628  
1145.000000	83.826041  
1144.000000	84.086346  
1143.000000	84.263205  
1142.000000	84.392213  
1141.000000	84.516525  
1140.000000	84.681200  
1139.000000	84.935164  
1138.000000	85.294485  
1137.000000	85.772204  
1136.000000	86.368823  
1135.000000	87.077546  
1134.000000	87.863111  
1133.000000	88.696026  
1132.000000	89.550781  
1131.000000	90.397977  
1130.000000	91.196846  
1129.000000	91.921854  
1128.000000	92.563581  
1127.000000	93.108630  
1126.000000	93.539667  
1125.000000	93.858695  
1124.000000	94.090485  
1123.000000	94.257140  
1122.000000	94.379138  
1121.000000	94.482779  
1120.000000	94.595742  
1119.000000	94.715714  
1118.000000	94.823884  
1117.000000	94.899249  
1116.000000	94.926881  
1115.000000	94.882154  
1114.000000	94.746756  
1113.000000	94.517707  
1112.000000	94.201922  
1111.000000	93.804979  
1110.000000	93.342351  
1109.000000	92.850565  
1108.000000	92.378282  
1107.000000	91.970610  
1106.000000	91.665196  
1105.000000	91.493487  
1104.000000	91.477465  
1103.000000	91.620612  
1102.000000	91.903114  
1101.000000	92.285084  
1100.000000	92.718505  
1099.000000	93.155288  
1098.000000	93.554782  
1097.000000	93.887996  
1096.000000	94.147825  
1095.000000	94.343757  
1094.000000	94.495987  
1093.000000	94.627809  
1092.000000	94.765639  
1091.000000	94.928646  
1090.000000	95.122337  
1089.000000	95.352673  
1088.000000	95.626950  
1087.000000	95.952105  
1086.000000	96.310997  
1085.000000	96.691966  
1084.000000	97.085690  
1083.000000	97.485804  
1082.000000	97.864270  
1081.000000	98.190760  
1080.000000	98.438072  
1079.000000	98.575019  
1078.000000	98.568272  
1077.000000	98.401212  
1076.000000	98.076486  
1075.000000	97.588086  
1074.000000	96.929621  
1073.000000	96.132111  
1072.000000	95.282697  
1071.000000	94.496035  
1070.000000	93.887615  
1069.000000	93.552756  
1068.000000	93.532800  
1067.000000	93.786406  
1066.000000	94.220256  
1065.000000	94.747591  
1064.000000	95.313191  
1063.000000	95.881795  
1062.000000	96.433877  
1061.000000	96.971702  
1060.000000	97.499775  
1059.000000	98.016977  
1058.000000	98.521351  
1057.000000	99.024915  
1056.000000	99.527621  
1055.000000	100.010514 
1054.000000	100.446009 
1053.000000	100.820279 
1052.000000	101.123046 
1051.000000	101.340126 
1050.000000	101.463651 
1049.000000	101.499223 
1048.000000	101.463079 
1047.000000	101.369905 
1046.000000	101.234030 
1045.000000	101.070737 
1044.000000	100.895762 
1043.000000	100.722169 
1042.000000	100.555109 
1041.000000	100.397062 
1040.000000	100.247287 
1039.000000	100.106024 
1038.000000	99.964022  
1037.000000	99.811959  
1036.000000	99.638938  
1035.000000	99.434018  
1034.000000	99.179410  
1033.000000	98.862838  
1032.000000	98.484730  
1031.000000	98.047566  
1030.000000	97.550868  
1029.000000	96.997618  
1028.000000	96.407103  
1027.000000	95.797848  
1026.000000	95.187997  
1025.000000	94.603610  
1024.000000	94.084262  
1023.000000	93.655276  
1022.000000	93.322539  
1021.000000	93.087601  
1020.000000	92.954850  
1019.000000	92.914104  
1018.000000	92.943692  
1017.000000	93.033289  
1016.000000	93.183994  
1015.000000	93.389439  
1014.000000	93.635606  
1013.000000	93.923020  
1012.000000	94.258189  
1011.000000	94.635295  
1010.000000	95.033407  
1009.000000	95.440626  
1008.000000	95.845627  
1007.000000	96.231913  
1006.000000	96.580290  
1005.000000	96.886920  
1004.000000	97.151184  
1003.000000	97.368359  
1002.000000	97.535181  
1001.000000	97.661113  
1000.000000	97.758173  
999.000000	 97.832441  
998.000000	 97.888255  
997.000000	 97.934770  
996.000000	 97.980189  
995.000000	 98.028111  
994.000000	 98.081541  
993.000000	 98.146295  
992.000000	 98.227286  
991.000000	 98.325753  
990.000000	 98.442792  
989.000000	 98.584175  
988.000000	 98.760628  
987.000000	 98.980331  
986.000000	 99.242973  
985.000000	 99.542450  
984.000000	 99.873542  
983.000000	 100.226712 
982.000000	 100.584387 
981.000000	 100.926280 
980.000000	 101.241803 
979.000000	 101.522135 
978.000000	 101.758646 
977.000000	 101.951527 
976.000000	 102.118825 
975.000000	 102.277374 
974.000000	 102.431392 
973.000000	 102.586078 
972.000000	 102.756524 
971.000000	 102.953100 
970.000000	 103.170680 
969.000000	 103.406691 
968.000000	 103.664016 
967.000000	 103.935670 
966.000000	 104.200482 
965.000000	 104.445958 
964.000000	 104.671645 
963.000000	 104.871582 
962.000000	 105.033898 
961.000000	 105.159807 
960.000000	 105.259966 
959.000000	 105.333375 
958.000000	 105.373907 
957.000000	 105.386948 
956.000000	 105.383777 
955.000000	 105.356884 
954.000000	 105.294203 
953.000000	 105.196452 
952.000000	 105.073332 
951.000000	 104.920864 
950.000000	 104.734992 
949.000000	 104.521894 
948.000000	 104.291963 
947.000000	 104.044151 
946.000000	 103.780341 
945.000000	 103.511929 
944.000000	 103.252148 
943.000000	 103.003978 
942.000000	 102.771329 
941.000000	 102.564072 
940.000000	 102.391409 
939.000000	 102.253341 
938.000000	 102.145433 
937.000000	 102.063035 
936.000000	 102.001023 
935.000000	 101.949739 
934.000000	 101.895833 
933.000000	 101.827955 
932.000000	 101.742386 
931.000000	 101.638770 
930.000000	 101.515507 
929.000000	 101.370811 
928.000000	 101.209926 
927.000000	 101.035356 
926.000000	 100.844764 
925.000000	 100.637269 
924.000000	 100.426721 
923.000000	 100.223278 
922.000000	 100.026011 
921.000000	 99.829792  
920.000000	 99.642825  
919.000000	 99.473500  
918.000000	 99.326205  
917.000000	 99.209785  
916.000000	 99.144053  
915.000000	 99.139666  
914.000000	 99.192571  
913.000000	 99.299216  
912.000000	 99.460411  
911.000000	 99.663066  
910.000000	 99.882149  
909.000000	 100.103306 
908.000000	 100.325632 
907.000000	 100.542497 
906.000000	 100.742340 
905.000000	 100.926113 
904.000000	 101.100897 
903.000000	 101.259422 
902.000000	 101.388001 
901.000000	 101.488184 
900.000000	 101.572871 
899.000000	 101.644659 
898.000000	 101.700806 
897.000000	 101.744151 
896.000000	 101.778340 
895.000000	 101.795315 
894.000000	 101.787137 
893.000000	 101.754713 
892.000000	 101.698780 
891.000000	 101.611375 
890.000000	 101.486897 
889.000000	 101.331758 
888.000000	 101.156592 
887.000000	 100.969290 
886.000000	 100.781798 
885.000000	 100.615882 
884.000000	 100.498390 
883.000000	 100.448560 
882.000000	 100.472450 
881.000000	 100.565147 
880.000000	 100.718402 
879.000000	 100.913619 
878.000000	 101.118803 
877.000000	 101.296091 
876.000000	 101.420569 
875.000000	 101.472854 
874.000000	 101.432943 
873.000000	 101.282453 
872.000000	 101.025843 
871.000000	 100.680327 
870.000000	 100.274395 
869.000000	 99.855160  
868.000000	 99.498057  
867.000000	 99.277162  
866.000000	 99.233889  
865.000000	 99.374175  
864.000000	 99.673128  
863.000000	 100.075292 
862.000000	 100.505375 
861.000000	 100.906634 
860.000000	 101.254963 
859.000000	 101.542639 
858.000000	 101.765465 
857.000000	 101.933383 
856.000000	 102.068614 
855.000000	 102.184605 
854.000000	 102.283644 
853.000000	 102.373194 
852.000000	 102.464485 
851.000000	 102.554893 
850.000000	 102.632236 
849.000000	 102.691841 
848.000000	 102.734160 
847.000000	 102.749896 
846.000000	 102.735066 
845.000000	 102.709817 
844.000000	 102.710413 
843.000000	 102.761554 
842.000000	 102.870750 
841.000000	 103.034281 
840.000000	 103.235340 
839.000000	 103.446030 
838.000000	 103.643774 
837.000000	 103.826618 
836.000000	 104.005002 
835.000000	 104.188537 
834.000000	 104.380607 
833.000000	 104.581856 
832.000000	 104.791307 
831.000000	 105.007982 
830.000000	 105.230998 
829.000000	 105.457234 
828.000000	 105.680418 
827.000000	 105.894017 
826.000000	 106.093955 
825.000000	 106.282186 
824.000000	 106.462931 
823.000000	 106.634283 
822.000000	 106.784558 
821.000000	 106.909704 
820.000000	 107.020044 
819.000000	 107.123160 
818.000000	 107.203459 
817.000000	 107.246828 
816.000000	 107.260227 
815.000000	 107.261085 
814.000000	 107.245922 
813.000000	 107.210540 
812.000000	 107.160615 
811.000000	 107.108616 
810.000000	 107.047247 
809.000000	 106.970262 
808.000000	 106.878423 
807.000000	 106.775569 
806.000000	 106.656098 
805.000000	 106.517267 
804.000000	 106.359434 
803.000000	 106.173968 
802.000000	 105.942177 
801.000000	 105.651330 
800.000000	 105.299329 
799.000000	 104.885268 
798.000000	 104.415512 
797.000000	 103.920006 
796.000000	 103.449773 
795.000000	 103.056788 
794.000000	 102.784061 
793.000000	 102.664089 
792.000000	 102.707529 
791.000000	 102.891087 
790.000000	 103.169536 
789.000000	 103.497004 
788.000000	 103.834509 
787.000000	 104.150080 
786.000000	 104.422926 
785.000000	 104.649209 
784.000000	 104.831838 
783.000000	 104.973793 
782.000000	 105.075001 
781.000000	 105.139136 
780.000000	 105.171704 
779.000000	 105.177879 
778.000000	 105.158185 
777.000000	 105.112385 
776.000000	 105.043721 
775.000000	 104.954862 
774.000000	 104.839777 
773.000000	 104.689764 
772.000000	 104.506826 
771.000000	 104.300689 
770.000000	 104.071784 
769.000000	 103.816270 
768.000000	 103.536248 
767.000000	 103.239774 
766.000000	 102.920818 
765.000000	 102.574610 
764.000000	 102.205109 
763.000000	 101.822900 
762.000000	 101.420092 
761.000000	 100.992536 
760.000000	 100.544786 
759.000000	 100.088882 
758.000000	 99.616813  
757.000000	 99.121618  
756.000000	 98.598480  
755.000000	 98.044872  
754.000000	 97.445511  
753.000000	 96.795487  
752.000000	 96.100878  
751.000000	 95.369219  
750.000000	 94.597578  
749.000000	 93.788790  
748.000000	 92.951941  
747.000000	 92.092800  
746.000000	 91.210675  
745.000000	 90.312266  
744.000000	 89.408898  
743.000000	 88.501811  
742.000000	 87.582325  
741.000000	 86.646890  
740.000000	 85.699009  
739.000000	 84.740781  
738.000000	 83.770608  
737.000000	 82.793664  
736.000000	 81.811642  
735.000000	 80.825304  
734.000000	 79.832100  
733.000000	 78.845787  
732.000000	 77.873659  
731.000000	 76.922702  
730.000000	 75.996184  
729.000000	 75.116252  
728.000000	 74.299454  
727.000000	 73.567605  
726.000000	 72.948193  
725.000000	 72.479057  
724.000000	 72.167253  
723.000000	 71.991419  
722.000000	 71.925234  
721.000000	 71.954822  
720.000000	 72.055292  
719.000000	 72.189378  
718.000000	 72.332143  
717.000000	 72.480201  
716.000000	 72.637891  
715.000000	 72.806763  
714.000000	 72.998166  
713.000000	 73.219895  
712.000000	 73.470163  
711.000000	 73.735857  
710.000000	 74.017095  
709.000000	 74.315190  
708.000000	 74.630069  
707.000000	 74.952864  
706.000000	 75.281786  
705.000000	 75.613665  
704.000000	 75.946283  
703.000000	 76.276874  
702.000000	 76.612854  
701.000000	 76.965975  
700.000000	 77.345085  
699.000000	 77.743029  
698.000000	 78.148365  
697.000000	 78.561162  
696.000000	 78.991985  
695.000000	 79.436516  
694.000000	 79.878854  
693.000000	 80.317878  
692.000000	 80.768132  
691.000000	 81.232762  
690.000000	 81.705474  
689.000000	 82.195520  
688.000000	 82.713127  
687.000000	 83.239531  
686.000000	 83.752632  
685.000000	 84.269022  
684.000000	 84.818983  
683.000000	 85.395693  
682.000000	 85.971975  
681.000000	 86.558747  
680.000000	 87.174844  
679.000000	 87.799835  
678.000000	 88.421010  
677.000000	 89.070153  
676.000000	 89.745974  
675.000000	 90.394306  
674.000000	 91.020917  
673.000000	 91.658902  
672.000000	 92.187237  
671.000000	 92.457127  
670.000000	 92.664051  
669.000000	 93.232393  
668.000000	 94.229340  
667.000000	 95.239686  
666.000000	 95.921206  
665.000000	 96.347451  
664.000000	 96.732020  
663.000000	 97.132873  
662.000000	 97.520351  
661.000000	 97.900390  
660.000000	 98.279738  
659.000000	 98.640155  
658.000000	 98.972678  
657.000000	 99.285650  
656.000000	 99.578237  
655.000000	 99.851441  
654.000000	 100.113034 
653.000000	 100.366616 
652.000000	 100.603556 
651.000000	 100.826597 
650.000000	 101.046133 
649.000000	 101.280403 
648.000000	 101.532220 
647.000000	 101.788902 
646.000000	 102.030658 
645.000000	 102.249765 
644.000000	 102.448272 
643.000000	 102.631640 
642.000000	 102.801179 
641.000000	 102.962708 
640.000000	 103.120756 
639.000000	 103.268766 
638.000000	 103.396463 
637.000000	 103.509640 
636.000000	 103.620386 
635.000000	 103.721475 
634.000000	 103.796982 
633.000000	 103.850054 
632.000000	 103.896307 
631.000000	 103.930068 
630.000000	 103.935003 
629.000000	 103.911447 
628.000000	 103.873538 
627.000000	 103.820371 
626.000000	 103.746485 
625.000000	 103.658342 
624.000000	 103.565883 
623.000000	 103.462386 
622.000000	 103.340268 
621.000000	 103.201055 
620.000000	 103.043556 
619.000000	 102.861166 
618.000000	 102.670216 
617.000000	 102.506542 
616.000000	 102.383041 
615.000000	 102.274918 
614.000000	 102.160024 
613.000000	 102.045273 
612.000000	 101.945686 
611.000000	 101.862835 
610.000000	 101.793694 
609.000000	 101.738762 
608.000000	 101.696515 
607.000000	 101.663088 
606.000000	 101.641106 
605.000000	 101.636314 
604.000000	 101.648926 
603.000000	 101.673841 
602.000000	 101.708793 
601.000000	 101.749706 
600.000000	 101.787185 
599.000000	 101.811051 
598.000000	 101.823186 
597.000000	 101.836371 
596.000000	 101.863574 
595.000000	 101.901674 
594.000000	 101.936674 
593.000000	 101.957011 
592.000000	 101.965951 
591.000000	 101.972198 
590.000000	 101.980686 
589.000000	 101.990175 
588.000000	 102.001237 
587.000000	 102.016806 
586.000000	 102.040958 
585.000000	 102.076435 
584.000000	 102.126049 
583.000000	 102.192234 
582.000000	 102.276468 
581.000000	 102.378320 
580.000000	 102.495765 
579.000000	 102.626895 
578.000000	 102.770304 
577.000000	 102.924036 
576.000000	 103.081822 
575.000000	 103.236460 
574.000000	 103.386235 
573.000000	 103.537511 
572.000000	 103.693461 
571.000000	 103.848409 
570.000000	 103.996348 
569.000000	 104.140663 
568.000000	 104.283738 
567.000000	 104.420399 
566.000000	 104.548788 
565.000000	 104.677224 
564.000000	 104.809689 
563.000000	 104.938507 
562.000000	 105.059695 
561.000000	 105.179190 
560.000000	 105.297684 
559.000000	 105.408525 
558.000000	 105.515384 
557.000000	 105.629777 
556.000000	 105.750131 
555.000000	 105.865359 
554.000000	 105.978703 
553.000000	 106.102275 
552.000000	 106.230282 
551.000000	 106.346154 
550.000000	 106.450390 
549.000000	 106.556105 
548.000000	 106.661581 
547.000000	 106.755805 
546.000000	 106.840181 
545.000000	 106.922078 
544.000000	 106.997799 
543.000000	 107.065820 
542.000000	 107.136702 
541.000000	 107.212615 
540.000000	 107.276320 
539.000000	 107.323741 
538.000000	 107.374763 
537.000000	 107.436966 
536.000000	 107.488512 
535.000000	 107.518458 
534.000000	 107.545614 
533.000000	 107.584595 
532.000000	 107.624721 
531.000000	 107.655954 
530.000000	 107.681894 
529.000000	 107.702636 
528.000000	 107.709717 
527.000000	 107.705354 
526.000000	 107.708239 
525.000000	 107.732892 
524.000000	 107.769370 
523.000000	 107.790994 
522.000000	 107.792496 
521.000000	 107.800459 
520.000000	 107.826399 
519.000000	 107.838320 
518.000000	 107.816720 
517.000000	 107.797670 
516.000000	 107.811403 
515.000000	 107.826185 
514.000000	 107.808232 
513.000000	 107.782626 
512.000000	 107.779145 
511.000000	 107.775044 
510.000000	 107.743549 
509.000000	 107.704186 
508.000000	 107.681274 
507.000000	 107.666635 
506.000000	 107.654666 
505.000000	 107.658839 
504.000000	 107.675361 
503.000000	 107.680225 
502.000000	 107.673621 
501.000000	 107.681202 
500.000000	 107.708263 
499.000000	 107.735824 
498.000000	 107.759284 
497.000000	 107.786393 
496.000000	 107.805633 
495.000000	 107.798171 
494.000000	 107.774209 
493.000000	 107.761287 
492.000000	 107.766294 
491.000000	 107.777833 
490.000000	 107.792210 
489.000000	 107.809209 
488.000000	 107.815933 
487.000000	 107.798624 
486.000000	 107.762813 
485.000000	 107.727003 
484.000000	 107.705998 
483.000000	 107.707023 
482.000000	 107.729959 
481.000000	 107.763004 
480.000000	 107.789540 
479.000000	 107.804036 
478.000000	 107.811450 
477.000000	 107.813286 
476.000000	 107.807254 
475.000000	 107.799196 
474.000000	 107.798624 
473.000000	 107.802295 
472.000000	 107.793617 
471.000000	 107.764148 
470.000000	 107.732892 
469.000000	 107.731652 
468.000000	 107.765436 
467.000000	 107.799863 
466.000000	 107.805514 
465.000000	 107.792282 
464.000000	 107.777619 
463.000000	 107.748222 
462.000000	 107.691550 
461.000000	 107.634735 
460.000000	 107.613158 
459.000000	 107.618999 
458.000000	 107.616806 
457.000000	 107.588911 
456.000000	 107.541537 
455.000000	 107.483792 
454.000000	 107.425689 
453.000000	 107.373738 
452.000000	 107.319736 
451.000000	 107.253193 
450.000000	 107.187414 
449.000000	 107.138228 
448.000000	 107.084774 
447.000000	 106.995415 
446.000000	 106.887245 
445.000000	 106.801819 
444.000000	 106.732487 
443.000000	 106.635427 
442.000000	 106.504750 
441.000000	 106.369352 
440.000000	 106.236028 
439.000000	 106.098961 
438.000000	 105.987238 
437.000000	 105.926823 
436.000000	 105.893087 
435.000000	 105.854487 
434.000000	 105.832648 
433.000000	 105.858564 
432.000000	 105.922508 
431.000000	 106.009840 
430.000000	 106.133699 
429.000000	 106.282830 
428.000000	 106.408452 
427.000000	 106.499981 
426.000000	 106.608533 
425.000000	 106.763720 
424.000000	 106.935882 
423.000000	 107.099604 
422.000000	 107.263183 
421.000000	 107.417726 
420.000000	 107.522082 
419.000000	 107.557940 
418.000000	 107.559227 
417.000000	 107.569098 
416.000000	 107.587146 
415.000000	 107.575678 
414.000000	 107.514071 
413.000000	 107.429838 
412.000000	 107.364201 
411.000000	 107.317161 
410.000000	 107.278418 
409.000000	 107.268548 
408.000000	 107.295370 
407.000000	 107.305788 
406.000000	 107.274270 
405.000000	 107.255029 
404.000000	 107.261466 
403.000000	 107.245945 
402.000000	 107.276725 
401.000000	 107.489418 
400.000000	 107.741928 

