PE IR       SPECTRUM    SPECTRUM    ASCII       PEDS        1.60        
  -1
10LEN2.ASC
14/01/10
11:22:13.00
14/01/10
11:22:13.00
Admin

400.000000
8









2002,4.07    
MIRTGS : RIGHTBACK : INTERNAL 2
MIR : ON : INTERNAL 2
OPTKBR

0.200000
1
4.000000
STRONG
RATIO
SPECTRUM
UNLOCKED 256

DOUBLE
8
FORWARD
1
0
0


1.000000
RATIO


1
0
TRUE
41620
0
LEFT NOT FITTED RIGHT NOT FITTED 0
NONE
NONE
15600
21.200000
8.970000
41618
TRUE
1 0 8 72 0 0 0 0 

15798.013000






#HDR
-1
-1
#GR
CM-1
%T
0.00002384185791015625
0.0
4000.000000
-1.000000
3601
8
116.845536
9.596681
#DATA
4000.000000	116.245794 
3999.000000	116.251087 
3998.000000	116.257452 
3997.000000	116.264271 
3996.000000	116.271352 
3995.000000	116.276192 
3994.000000	116.277337 
3993.000000	116.277384 
3992.000000	116.279315 
3991.000000	116.281914 
3990.000000	116.282415 
3989.000000	116.281580 
3988.000000	116.284251 
3987.000000	116.293668 
3986.000000	116.307878 
3985.000000	116.321420 
3984.000000	116.329622 
3983.000000	116.331768 
3982.000000	116.329908 
3981.000000	116.327118 
3980.000000	116.326856 
3979.000000	116.330838 
3978.000000	116.337013 
3977.000000	116.341185 
3976.000000	116.341280 
3975.000000	116.337943 
3974.000000	116.331577 
3973.000000	116.322636 
3972.000000	116.314697 
3971.000000	116.312384 
3970.000000	116.316485 
3969.000000	116.323995 
3968.000000	116.331243 
3967.000000	116.335010 
3966.000000	116.332316 
3965.000000	116.324162 
3964.000000	116.315031 
3963.000000	116.307425 
3962.000000	116.299390 
3961.000000	116.292262 
3960.000000	116.292333 
3959.000000	116.300678 
3958.000000	116.309666 
3957.000000	116.313290 
3956.000000	116.313958 
3955.000000	116.316032 
3954.000000	116.319775 
3953.000000	116.324496 
3952.000000	116.329813 
3951.000000	116.331696 
3950.000000	116.323423 
3949.000000	116.305088 
3948.000000	116.287660 
3947.000000	116.284275 
3946.000000	116.298174 
3945.000000	116.317892 
3944.000000	116.326522 
3943.000000	116.316747 
3942.000000	116.298270 
3941.000000	116.289377 
3940.000000	116.299891 
3939.000000	116.324353 
3938.000000	116.351127 
3937.000000	116.374850 
3936.000000	116.398739 
3935.000000	116.424989 
3934.000000	116.446375 
3933.000000	116.451930 
3932.000000	116.440653 
3931.000000	116.424703 
3930.000000	116.416954 
3929.000000	116.422080 
3928.000000	116.441202 
3927.000000	116.470694 
3926.000000	116.496014 
3925.000000	116.502094 
3924.000000	116.493391 
3923.000000	116.488885 
3922.000000	116.497254 
3921.000000	116.511821 
3920.000000	116.527032 
3919.000000	116.540622 
3918.000000	116.543531 
3917.000000	116.529679 
3916.000000	116.512060 
3915.000000	116.511178 
3914.000000	116.530418 
3913.000000	116.556191 
3912.000000	116.576552 
3911.000000	116.590213 
3910.000000	116.602253 
3909.000000	116.619467 
3908.000000	116.644668 
3907.000000	116.669178 
3906.000000	116.675949 
3905.000000	116.653919 
3904.000000	116.610908 
3903.000000	116.569757 
3902.000000	116.548681 
3901.000000	116.544485 
3900.000000	116.541361 
3899.000000	116.534423 
3898.000000	116.535162 
3897.000000	116.554689 
3896.000000	116.592359 
3895.000000	116.639280 
3894.000000	116.681241 
3893.000000	116.699552 
3892.000000	116.682815 
3891.000000	116.645050 
3890.000000	116.621232 
3889.000000	116.637063 
3888.000000	116.682243 
3887.000000	116.718530 
3886.000000	116.717004 
3885.000000	116.686534 
3884.000000	116.661381 
3883.000000	116.660332 
3882.000000	116.666698 
3881.000000	116.652178 
3880.000000	116.615414 
3879.000000	116.589093 
3878.000000	116.606283 
3877.000000	116.660952 
3876.000000	116.712713 
3875.000000	116.728758 
3874.000000	116.715550 
3873.000000	116.702461 
3872.000000	116.701626 
3871.000000	116.696095 
3870.000000	116.669511 
3869.000000	116.636967 
3868.000000	116.634321 
3867.000000	116.672492 
3866.000000	116.715621 
3865.000000	116.721606 
3864.000000	116.693902 
3863.000000	116.667604 
3862.000000	116.659569 
3861.000000	116.664314 
3860.000000	116.684412 
3859.000000	116.724276 
3858.000000	116.767239 
3857.000000	116.796493 
3856.000000	116.811919 
3855.000000	116.797518 
3854.000000	116.722321 
3853.000000	116.607356 
3852.000000	116.535949 
3851.000000	116.555929 
3850.000000	116.624283 
3849.000000	116.681718 
3848.000000	116.725254 
3847.000000	116.776871 
3846.000000	116.826939 
3845.000000	116.845536 
3844.000000	116.825485 
3843.000000	116.791319 
3842.000000	116.770172 
3841.000000	116.764545 
3840.000000	116.757273 
3839.000000	116.738867 
3838.000000	116.718292 
3837.000000	116.707134 
3836.000000	116.707348 
3835.000000	116.714739 
3834.000000	116.722941 
3833.000000	116.722941 
3832.000000	116.712546 
3831.000000	116.703319 
3830.000000	116.709518 
3829.000000	116.729021 
3828.000000	116.744375 
3827.000000	116.742992 
3826.000000	116.730618 
3825.000000	116.727137 
3824.000000	116.747736 
3823.000000	116.780066 
3822.000000	116.782951 
3821.000000	116.733860 
3820.000000	116.674304 
3819.000000	116.667509 
3818.000000	116.711044 
3817.000000	116.740393 
3816.000000	116.721153 
3815.000000	116.688871 
3814.000000	116.687154 
3813.000000	116.713094 
3812.000000	116.739487 
3811.000000	116.757678 
3810.000000	116.776371 
3809.000000	116.793155 
3808.000000	116.788649 
3807.000000	116.752004 
3806.000000	116.705012 
3805.000000	116.687941 
3804.000000	116.712880 
3803.000000	116.738367 
3802.000000	116.713428 
3801.000000	116.647505 
3800.000000	116.606330 
3799.000000	116.626429 
3798.000000	116.669154 
3797.000000	116.682505 
3796.000000	116.669082 
3795.000000	116.663551 
3794.000000	116.678905 
3793.000000	116.704511 
3792.000000	116.729807 
3791.000000	116.748952 
3790.000000	116.757750 
3789.000000	116.758298 
3788.000000	116.758203 
3787.000000	116.759634 
3786.000000	116.755867 
3785.000000	116.740751 
3784.000000	116.721463 
3783.000000	116.716957 
3782.000000	116.735577 
3781.000000	116.759204 
3780.000000	116.761541 
3779.000000	116.738367 
3778.000000	116.711068 
3777.000000	116.701269 
3776.000000	116.710257 
3775.000000	116.725277 
3774.000000	116.739916 
3773.000000	116.755819 
3772.000000	116.767621 
3771.000000	116.759657 
3770.000000	116.727614 
3769.000000	116.691040 
3768.000000	116.673827 
3767.000000	116.676783 
3766.000000	116.678833 
3765.000000	116.667270 
3764.000000	116.657447 
3763.000000	116.670322 
3762.000000	116.698646 
3761.000000	116.711521 
3760.000000	116.692304 
3759.000000	116.655707 
3758.000000	116.625094 
3757.000000	116.612267 
3756.000000	116.620826 
3755.000000	116.648697 
3754.000000	116.679930 
3753.000000	116.684365 
3752.000000	116.639780 
3751.000000	116.555881 
3750.000000	116.476392 
3749.000000	116.450977 
3748.000000	116.491436 
3747.000000	116.555333 
3746.000000	116.583085 
3745.000000	116.557097 
3744.000000	116.514945 
3743.000000	116.505217 
3742.000000	116.539549 
3741.000000	116.592526 
3740.000000	116.639041 
3739.000000	116.676163 
3738.000000	116.702270 
3737.000000	116.692566 
3736.000000	116.625881 
3735.000000	116.530585 
3734.000000	116.464042 
3733.000000	116.446137 
3732.000000	116.450023 
3731.000000	116.455721 
3730.000000	116.472220 
3729.000000	116.502261 
3728.000000	116.525459 
3727.000000	116.525316 
3726.000000	116.507863 
3725.000000	116.488409 
3724.000000	116.477298 
3723.000000	116.476583 
3722.000000	116.482710 
3721.000000	116.491413 
3720.000000	116.502118 
3719.000000	116.516304 
3718.000000	116.531491 
3717.000000	116.545939 
3716.000000	116.564869 
3715.000000	116.592311 
3714.000000	116.614103 
3713.000000	116.602897 
3712.000000	116.548418 
3711.000000	116.473770 
3710.000000	116.414880 
3709.000000	116.391563 
3708.000000	116.401743 
3707.000000	116.430878 
3706.000000	116.461515 
3705.000000	116.482615 
3704.000000	116.492819 
3703.000000	116.491603 
3702.000000	116.472983 
3701.000000	116.439557 
3700.000000	116.412115 
3699.000000	116.407823 
3698.000000	116.416859 
3697.000000	116.418242 
3696.000000	116.410040 
3695.000000	116.405653 
3694.000000	116.411161 
3693.000000	116.420817 
3692.000000	116.426610 
3691.000000	116.417121 
3690.000000	116.380190 
3689.000000	116.320228 
3688.000000	116.261219 
3687.000000	116.225814 
3686.000000	116.217136 
3685.000000	116.222524 
3684.000000	116.231465 
3683.000000	116.244935 
3682.000000	116.262817 
3681.000000	116.272497 
3680.000000	116.265654 
3679.000000	116.255760 
3678.000000	116.252923 
3677.000000	116.233372 
3676.000000	116.169738 
3675.000000	116.087388 
3674.000000	116.050124 
3673.000000	116.084361 
3672.000000	116.143822 
3671.000000	116.160702 
3670.000000	116.117835 
3669.000000	116.059017 
3668.000000	116.036319 
3667.000000	116.058182 
3666.000000	116.094565 
3665.000000	116.119599 
3664.000000	116.132903 
3663.000000	116.144680 
3662.000000	116.159296 
3661.000000	116.174983 
3660.000000	116.192722 
3659.000000	116.211795 
3658.000000	116.217494 
3657.000000	116.191744 
3656.000000	116.142511 
3655.000000	116.107559 
3654.000000	116.117691 
3653.000000	116.169095 
3652.000000	116.231441 
3651.000000	116.260433 
3650.000000	116.213321 
3649.000000	116.093158 
3648.000000	115.970659 
3647.000000	115.922975 
3646.000000	115.955591 
3645.000000	116.015958 
3644.000000	116.066575 
3643.000000	116.106104 
3642.000000	116.134166 
3641.000000	116.145038 
3640.000000	116.146016 
3639.000000	116.147136 
3638.000000	116.146612 
3637.000000	116.145014 
3636.000000	116.152811 
3635.000000	116.165447 
3634.000000	116.164231 
3633.000000	116.157245 
3632.000000	116.173028 
3631.000000	116.200613 
3630.000000	116.190361 
3629.000000	116.129779 
3628.000000	116.071820 
3627.000000	116.067171 
3626.000000	116.108751 
3625.000000	116.160273 
3624.000000	116.205430 
3623.000000	116.250491 
3622.000000	116.294169 
3621.000000	116.314721 
3620.000000	116.293406 
3619.000000	116.244196 
3618.000000	116.205501 
3617.000000	116.201472 
3616.000000	116.223430 
3615.000000	116.247701 
3614.000000	116.258597 
3613.000000	116.256046 
3612.000000	116.254901 
3611.000000	116.270709 
3610.000000	116.297912 
3609.000000	116.313791 
3608.000000	116.310882 
3607.000000	116.309165 
3606.000000	116.328096 
3605.000000	116.362738 
3604.000000	116.396737 
3603.000000	116.421675 
3602.000000	116.435074 
3601.000000	116.435575 
3600.000000	116.428542 
3599.000000	116.423487 
3598.000000	116.420674 
3597.000000	116.412782 
3596.000000	116.399455 
3595.000000	116.388058 
3594.000000	116.382193 
3593.000000	116.383862 
3592.000000	116.400289 
3591.000000	116.432428 
3590.000000	116.461300 
3589.000000	116.461801 
3588.000000	116.429877 
3587.000000	116.389036 
3586.000000	116.367173 
3585.000000	116.373109 
3584.000000	116.393852 
3583.000000	116.409444 
3582.000000	116.408705 
3581.000000	116.393661 
3580.000000	116.371226 
3579.000000	116.348576 
3578.000000	116.331386 
3577.000000	116.320896 
3576.000000	116.312909 
3575.000000	116.302967 
3574.000000	116.290593 
3573.000000	116.279840 
3572.000000	116.278815 
3571.000000	116.295170 
3570.000000	116.319489 
3569.000000	116.320013 
3568.000000	116.272997 
3567.000000	116.196060 
3566.000000	116.134762 
3565.000000	116.117119 
3564.000000	116.135025 
3563.000000	116.165637 
3562.000000	116.190218 
3561.000000	116.197824 
3560.000000	116.188311 
3559.000000	116.172957 
3558.000000	116.162252 
3557.000000	116.157126 
3556.000000	116.154575 
3555.000000	116.155052 
3554.000000	116.157150 
3553.000000	116.154670 
3552.000000	116.146564 
3551.000000	116.142225 
3550.000000	116.150760 
3549.000000	116.172504 
3548.000000	116.202569 
3547.000000	116.233587 
3546.000000	116.254043 
3545.000000	116.255187 
3544.000000	116.243171 
3543.000000	116.230988 
3542.000000	116.221165 
3541.000000	116.208767 
3540.000000	116.199040 
3539.000000	116.203188 
3538.000000	116.218543 
3537.000000	116.227793 
3536.000000	116.219162 
3535.000000	116.197490 
3534.000000	116.175627 
3533.000000	116.162347 
3532.000000	116.157436 
3531.000000	116.153907 
3530.000000	116.143774 
3529.000000	116.125869 
3528.000000	116.109323 
3527.000000	116.108608 
3526.000000	116.131544 
3525.000000	116.169357 
3524.000000	116.198778 
3523.000000	116.198658 
3522.000000	116.167330 
3521.000000	116.124558 
3520.000000	116.093516 
3519.000000	116.082692 
3518.000000	116.085696 
3517.000000	116.095757 
3516.000000	116.112303 
3515.000000	116.132330 
3514.000000	116.143321 
3513.000000	116.130590 
3512.000000	116.090011 
3511.000000	116.032409 
3510.000000	115.976619 
3509.000000	115.937519 
3508.000000	115.920996 
3507.000000	115.926289 
3506.000000	115.952277 
3505.000000	115.993571 
3504.000000	116.033482 
3503.000000	116.049265 
3502.000000	116.031336 
3501.000000	115.994763 
3500.000000	115.966272 
3499.000000	115.957760 
3498.000000	115.956068 
3497.000000	115.938830 
3496.000000	115.900540 
3495.000000	115.852856 
3494.000000	115.803313 
3493.000000	115.747666 
3492.000000	115.686392 
3491.000000	115.633964 
3490.000000	115.604019 
3489.000000	115.594863 
3488.000000	115.591835 
3487.000000	115.573000 
3486.000000	115.516924 
3485.000000	115.420889 
3484.000000	115.313816 
3483.000000	115.237379 
3482.000000	115.209388 
3481.000000	115.208840 
3480.000000	115.194153 
3479.000000	115.134406 
3478.000000	115.027117 
3477.000000	114.893698 
3476.000000	114.762330 
3475.000000	114.650058 
3474.000000	114.563608 
3473.000000	114.507102 
3472.000000	114.484357 
3471.000000	114.490199 
3470.000000	114.506101 
3469.000000	114.508795 
3468.000000	114.484667 
3467.000000	114.433860 
3466.000000	114.367651 
3465.000000	114.301609 
3464.000000	114.254736 
3463.000000	114.245462 
3462.000000	114.280557 
3461.000000	114.346981 
3460.000000	114.419388 
3459.000000	114.479517 
3458.000000	114.527845 
3457.000000	114.576888 
3456.000000	114.637374 
3455.000000	114.711523 
3454.000000	114.794421 
3453.000000	114.879941 
3452.000000	114.963889 
3451.000000	115.045499 
3450.000000	115.125727 
3449.000000	115.205883 
3448.000000	115.283632 
3447.000000	115.353536 
3446.000000	115.409898 
3445.000000	115.452194 
3444.000000	115.487480 
3443.000000	115.524768 
3442.000000	115.567898 
3441.000000	115.616083 
3440.000000	115.672659 
3439.000000	115.740704 
3438.000000	115.810704 
3437.000000	115.864753 
3436.000000	115.896677 
3435.000000	115.914320 
3434.000000	115.923428 
3433.000000	115.925574 
3432.000000	115.930008 
3431.000000	115.946197 
3430.000000	115.965867 
3429.000000	115.971350 
3428.000000	115.959954 
3427.000000	115.943527 
3426.000000	115.929865 
3425.000000	115.921831 
3424.000000	115.924715 
3423.000000	115.940213 
3422.000000	115.957593 
3421.000000	115.964436 
3420.000000	115.960621 
3419.000000	115.955352 
3418.000000	115.955901 
3417.000000	115.965247 
3416.000000	115.984559 
3415.000000	116.011428 
3414.000000	116.038656 
3413.000000	116.057920 
3412.000000	116.065263 
3411.000000	116.063761 
3410.000000	116.059756 
3409.000000	116.057348 
3408.000000	116.056823 
3407.000000	116.057515 
3406.000000	116.061282 
3405.000000	116.071248 
3404.000000	116.089963 
3403.000000	116.117215 
3402.000000	116.148042 
3401.000000	116.172742 
3400.000000	116.182827 
3399.000000	116.177654 
3398.000000	116.163754 
3397.000000	116.150188 
3396.000000	116.145253 
3395.000000	116.153907 
3394.000000	116.172480 
3393.000000	116.189432 
3392.000000	116.195225 
3391.000000	116.189122 
3390.000000	116.174602 
3389.000000	116.154646 
3388.000000	116.134858 
3387.000000	116.122651 
3386.000000	116.119098 
3385.000000	116.119098 
3384.000000	116.122698 
3383.000000	116.134691 
3382.000000	116.152215 
3381.000000	116.165852 
3380.000000	116.173577 
3379.000000	116.182136 
3378.000000	116.192626 
3377.000000	116.198182 
3376.000000	116.196656 
3375.000000	116.193413 
3374.000000	116.193151 
3373.000000	116.198635 
3372.000000	116.214299 
3371.000000	116.240382 
3370.000000	116.267466 
3369.000000	116.284942 
3368.000000	116.290998 
3367.000000	116.287589 
3366.000000	116.274261 
3365.000000	116.253471 
3364.000000	116.235494 
3363.000000	116.229844 
3362.000000	116.235208 
3361.000000	116.242337 
3360.000000	116.243004 
3359.000000	116.234779 
3358.000000	116.221237 
3357.000000	116.210031 
3356.000000	116.208171 
3355.000000	116.216325 
3354.000000	116.231465 
3353.000000	116.251206 
3352.000000	116.273403 
3351.000000	116.292166 
3350.000000	116.298246 
3349.000000	116.286993 
3348.000000	116.265130 
3347.000000	116.247057 
3346.000000	116.241979 
3345.000000	116.245865 
3344.000000	116.248798 
3343.000000	116.247081 
3342.000000	116.244959 
3341.000000	116.247344 
3340.000000	116.256189 
3339.000000	116.269516 
3338.000000	116.278934 
3337.000000	116.273927 
3336.000000	116.254353 
3335.000000	116.232037 
3334.000000	116.217017 
3333.000000	116.208076 
3332.000000	116.201615 
3331.000000	116.198968 
3330.000000	116.201281 
3329.000000	116.206622 
3328.000000	116.215586 
3327.000000	116.229152 
3326.000000	116.240453 
3325.000000	116.239666 
3324.000000	116.226887 
3323.000000	116.210293 
3322.000000	116.192817 
3321.000000	116.172862 
3320.000000	116.154742 
3319.000000	116.144466 
3318.000000	116.139149 
3317.000000	116.133022 
3316.000000	116.127943 
3315.000000	116.127896 
3314.000000	116.129755 
3313.000000	116.130352 
3312.000000	116.134810 
3311.000000	116.147708 
3310.000000	116.163158 
3309.000000	116.172003 
3308.000000	116.171979 
3307.000000	116.166400 
3306.000000	116.156673 
3305.000000	116.140770 
3304.000000	116.117739 
3303.000000	116.090178 
3302.000000	116.062879 
3301.000000	116.039443 
3300.000000	116.021633 
3299.000000	116.010475 
3298.000000	116.006445 
3297.000000	116.006612 
3296.000000	116.005897 
3295.000000	116.001439 
3294.000000	115.992879 
3293.000000	115.979719 
3292.000000	115.960359 
3291.000000	115.935134 
3290.000000	115.906786 
3289.000000	115.879678 
3288.000000	115.859746 
3287.000000	115.852355 
3286.000000	115.855431 
3285.000000	115.860438 
3284.000000	115.863251 
3283.000000	115.868234 
3282.000000	115.877771 
3281.000000	115.886330 
3280.000000	115.891122 
3279.000000	115.898895 
3278.000000	115.915298 
3277.000000	115.936899 
3276.000000	115.958762 
3275.000000	115.980362 
3274.000000	116.000294 
3273.000000	116.016030 
3272.000000	116.029810 
3271.000000	116.044688 
3270.000000	116.054701 
3269.000000	116.051626 
3268.000000	116.038417 
3267.000000	116.026401 
3266.000000	116.019678 
3265.000000	116.014647 
3264.000000	116.010594 
3263.000000	116.009664 
3262.000000	116.009569 
3261.000000	116.006445 
3260.000000	116.002368 
3259.000000	116.003584 
3258.000000	116.011667 
3257.000000	116.023135 
3256.000000	116.032171 
3255.000000	116.032862 
3254.000000	116.021704 
3253.000000	116.003894 
3252.000000	115.990257 
3251.000000	115.986871 
3250.000000	115.990591 
3249.000000	115.995621 
3248.000000	115.999269 
3247.000000	115.999603 
3246.000000	115.993642 
3245.000000	115.980362 
3244.000000	115.962743 
3243.000000	115.945219 
3242.000000	115.930366 
3241.000000	115.918421 
3240.000000	115.909719 
3239.000000	115.905785 
3238.000000	115.907120 
3237.000000	115.911173 
3236.000000	115.915465 
3235.000000	115.919756 
3234.000000	115.921306 
3233.000000	115.913152 
3232.000000	115.893459 
3231.000000	115.870451 
3230.000000	115.851783 
3229.000000	115.835762 
3228.000000	115.819597 
3227.000000	115.806198 
3226.000000	115.796351 
3225.000000	115.784072 
3224.000000	115.767526 
3223.000000	115.753793 
3222.000000	115.747499 
3221.000000	115.744328 
3220.000000	115.739202 
3219.000000	115.731453 
3218.000000	115.719723 
3217.000000	115.702223 
3216.000000	115.682482 
3215.000000	115.665960 
3214.000000	115.651392 
3213.000000	115.634727 
3212.000000	115.619182 
3211.000000	115.610122 
3210.000000	115.604043 
3209.000000	115.593385 
3208.000000	115.578222 
3207.000000	115.563464 
3206.000000	115.549516 
3205.000000	115.534973 
3204.000000	115.521836 
3203.000000	115.510892 
3202.000000	115.496301 
3201.000000	115.473389 
3200.000000	115.445685 
3199.000000	115.419816 
3198.000000	115.397763 
3197.000000	115.378236 
3196.000000	115.360569 
3195.000000	115.344905 
3194.000000	115.330958 
3193.000000	115.317916 
3192.000000	115.305256 
3191.000000	115.292072 
3190.000000	115.276455 
3189.000000	115.256571 
3188.000000	115.233087 
3187.000000	115.210103 
3186.000000	115.190720 
3185.000000	115.172886 
3184.000000	115.153336 
3183.000000	115.133857 
3182.000000	115.118193 
3181.000000	115.105247 
3180.000000	115.091419 
3179.000000	115.076208 
3178.000000	115.060400 
3177.000000	115.043187 
3176.000000	115.026307 
3175.000000	115.015482 
3174.000000	115.011835 
3173.000000	115.009021 
3172.000000	115.003323 
3171.000000	114.998793 
3170.000000	114.997363 
3169.000000	114.994573 
3168.000000	114.989733 
3167.000000	114.988255 
3166.000000	114.990258 
3165.000000	114.989137 
3164.000000	114.983034 
3163.000000	114.977264 
3162.000000	114.973711 
3161.000000	114.969611 
3160.000000	114.966440 
3159.000000	114.968323 
3158.000000	114.972829 
3157.000000	114.974117 
3156.000000	114.973211 
3155.000000	114.975333 
3154.000000	114.979600 
3153.000000	114.979958 
3152.000000	114.972996 
3151.000000	114.959239 
3150.000000	114.939689 
3149.000000	114.917778 
3148.000000	114.899897 
3147.000000	114.889597 
3146.000000	114.883828 
3145.000000	114.878082 
3144.000000	114.872503 
3143.000000	114.869475 
3142.000000	114.869689 
3141.000000	114.871406 
3140.000000	114.871168 
3139.000000	114.864516 
3138.000000	114.848136 
3137.000000	114.823007 
3136.000000	114.794540 
3135.000000	114.768934 
3134.000000	114.749383 
3133.000000	114.734721 
3132.000000	114.722418 
3131.000000	114.711189 
3130.000000	114.698743 
3129.000000	114.679908 
3128.000000	114.653348 
3127.000000	114.626026 
3126.000000	114.605140 
3125.000000	114.589524 
3124.000000	114.576101 
3123.000000	114.566516 
3122.000000	114.561176 
3121.000000	114.552402 
3120.000000	114.533543 
3119.000000	114.507699 
3118.000000	114.480543 
3117.000000	114.451813 
3116.000000	114.419579 
3115.000000	114.384675 
3114.000000	114.347767 
3113.000000	114.308953 
3112.000000	114.273905 
3111.000000	114.249038 
3110.000000	114.229702 
3109.000000	114.203333 
3108.000000	114.165806 
3107.000000	114.123225 
3106.000000	114.079833 
3105.000000	114.035534 
3104.000000	113.993692 
3103.000000	113.958787 
3102.000000	113.926863 
3101.000000	113.890457 
3100.000000	113.849115 
3099.000000	113.806200 
3098.000000	113.759160 
3097.000000	113.703942 
3096.000000	113.643074 
3095.000000	113.584184 
3094.000000	113.530564 
3093.000000	113.481688 
3092.000000	113.434433 
3091.000000	113.384675 
3090.000000	113.327646 
3089.000000	113.263845 
3088.000000	113.197493 
3087.000000	113.131380 
3086.000000	113.061976 
3085.000000	112.984228 
3084.000000	112.895226 
3083.000000	112.795686 
3082.000000	112.687015 
3081.000000	112.569785 
3080.000000	112.444353 
3079.000000	112.311530 
3078.000000	112.170290 
3077.000000	112.016320 
3076.000000	111.845803 
3075.000000	111.660408 
3074.000000	111.463975 
3073.000000	111.258459 
3072.000000	111.047124 
3071.000000	110.839080 
3070.000000	110.642981 
3069.000000	110.460519 
3068.000000	110.290217 
3067.000000	110.134005 
3066.000000	109.993863 
3065.000000	109.869003 
3064.000000	109.762525 
3063.000000	109.680771 
3062.000000	109.622335 
3061.000000	109.575772 
3060.000000	109.534096 
3059.000000	109.498667 
3058.000000	109.466457 
3057.000000	109.425711 
3056.000000	109.368896 
3055.000000	109.296751 
3054.000000	109.207606 
3053.000000	109.096431 
3052.000000	108.962488 
3051.000000	108.809566 
3050.000000	108.633375 
3049.000000	108.431220 
3048.000000	108.206462 
3047.000000	107.969260 
3046.000000	107.711935 
3045.000000	107.426047 
3044.000000	107.101678 
3043.000000	106.745791 
3042.000000	106.351757 
3041.000000	105.921435 
3040.000000	105.441570 
3039.000000	104.916286 
3038.000000	104.331183 
3037.000000	103.686261 
3036.000000	102.963018 
3035.000000	102.163672 
3034.000000	101.270389 
3033.000000	100.268721 
3032.000000	99.126100  
3031.000000	97.836327  
3030.000000	96.396350  
3029.000000	94.799971  
3028.000000	93.011021  
3027.000000	90.991449  
3026.000000	88.708925  
3025.000000	86.150360  
3024.000000	83.303737  
3023.000000	80.174136  
3022.000000	76.767992  
3021.000000	73.128223  
3020.000000	69.317007  
3019.000000	65.456604  
3018.000000	61.666989  
3017.000000	58.097386  
3016.000000	54.877829  
3015.000000	52.168416  
3014.000000	50.076532  
3013.000000	48.688602  
3012.000000	48.034739  
3011.000000	48.148536  
3010.000000	49.003744  
3009.000000	50.539779  
3008.000000	52.641725  
3007.000000	55.205631  
3006.000000	58.108401  
3005.000000	61.225152  
3004.000000	64.402318  
3003.000000	67.501282  
3002.000000	70.405101  
3001.000000	73.044204  
3000.000000	75.376677  
2999.000000	77.389955  
2998.000000	79.088997  
2997.000000	80.501770  
2996.000000	81.655526  
2995.000000	82.587790  
2994.000000	83.323740  
2993.000000	83.903717  
2992.000000	84.337139  
2991.000000	84.650874  
2990.000000	84.833359  
2989.000000	84.899806  
2988.000000	84.819960  
2987.000000	84.599733  
2986.000000	84.209799  
2985.000000	83.654189  
2984.000000	82.900047  
2983.000000	81.946158  
2982.000000	80.773234  
2981.000000	79.383707  
2980.000000	77.766180  
2979.000000	75.938057  
2978.000000	73.923563  
2977.000000	71.755719  
2976.000000	69.463419  
2975.000000	67.094230  
2974.000000	64.706945  
2973.000000	62.350893  
2972.000000	60.055923  
2971.000000	57.846832  
2970.000000	55.748319  
2969.000000	53.780817  
2968.000000	51.968550  
2967.000000	50.356864  
2966.000000	48.997402  
2965.000000	47.932720  
2964.000000	47.182846  
2963.000000	46.759819  
2962.000000	46.635603  
2961.000000	46.743941  
2960.000000	46.974205  
2959.000000	47.220444  
2958.000000	47.374439  
2957.000000	47.354745  
2956.000000	47.106027  
2955.000000	46.632647  
2954.000000	45.986843  
2953.000000	45.258140  
2952.000000	44.538903  
2951.000000	43.896555  
2950.000000	43.352365  
2949.000000	42.876935  
2948.000000	42.403960  
2947.000000	41.853022  
2946.000000	41.156291  
2945.000000	40.268063  
2944.000000	39.166998  
2943.000000	37.855887  
2942.000000	36.365842  
2941.000000	34.734725  
2940.000000	33.000636  
2939.000000	31.203722  
2938.000000	29.416418  
2937.000000	27.712059  
2936.000000	26.159524  
2935.000000	24.809432  
2934.000000	23.724555  
2933.000000	22.925996  
2932.000000	22.401118  
2931.000000	22.110509  
2930.000000	22.048139  
2929.000000	22.189593  
2928.000000	22.506356  
2927.000000	22.964262  
2926.000000	23.574161  
2925.000000	24.331235  
2924.000000	25.225377  
2923.000000	26.242828  
2922.000000	27.394700  
2921.000000	28.670907  
2920.000000	30.047130  
2919.000000	31.504464  
2918.000000	33.037781  
2917.000000	34.624433  
2916.000000	36.226320  
2915.000000	37.820816  
2914.000000	39.402437  
2913.000000	40.963912  
2912.000000	42.490530  
2911.000000	43.981456  
2910.000000	45.442056  
2909.000000	46.871757  
2908.000000	48.266506  
2907.000000	49.630117  
2906.000000	50.970816  
2905.000000	52.286863  
2904.000000	53.576683  
2903.000000	54.839468  
2902.000000	56.080341  
2901.000000	57.294416  
2900.000000	58.482050  
2899.000000	59.642148  
2898.000000	60.781002  
2897.000000	61.896061  
2896.000000	62.985444  
2895.000000	64.043307  
2894.000000	65.070056  
2893.000000	66.063928  
2892.000000	67.019152  
2891.000000	67.924284  
2890.000000	68.768239  
2889.000000	69.541120  
2888.000000	70.227837  
2887.000000	70.814180  
2886.000000	71.284651  
2885.000000	71.626400  
2884.000000	71.811676  
2883.000000	71.820664  
2882.000000	71.634554  
2881.000000	71.252679  
2880.000000	70.665121  
2879.000000	69.904041  
2878.000000	69.025015  
2877.000000	68.131160  
2876.000000	67.302989  
2875.000000	66.628980  
2874.000000	66.143369  
2873.000000	65.839624  
2872.000000	65.630459  
2871.000000	65.418481  
2870.000000	65.103125  
2869.000000	64.603924  
2868.000000	63.847708  
2867.000000	62.795543  
2866.000000	61.439609  
2865.000000	59.792685  
2864.000000	57.877635  
2863.000000	55.745673  
2862.000000	53.469300  
2861.000000	51.142811  
2860.000000	48.871326  
2859.000000	46.795177  
2858.000000	45.060992  
2857.000000	43.815970  
2856.000000	43.173050  
2855.000000	43.225264  
2854.000000	44.003009  
2853.000000	45.484018  
2852.000000	47.570991  
2851.000000	50.149250  
2850.000000	53.071904  
2849.000000	56.212091  
2848.000000	59.427905  
2847.000000	62.615704  
2846.000000	65.673422  
2845.000000	68.553280  
2844.000000	71.226668  
2843.000000	73.713278  
2842.000000	76.033830  
2841.000000	78.219103  
2840.000000	80.280566  
2839.000000	82.223963  
2838.000000	84.039950  
2837.000000	85.723400  
2836.000000	87.273693  
2835.000000	88.706088  
2834.000000	90.035486  
2833.000000	91.282343  
2832.000000	92.455744  
2831.000000	93.569326  
2830.000000	94.621753  
2829.000000	95.619893  
2828.000000	96.558785  
2827.000000	97.445988  
2826.000000	98.277091  
2825.000000	99.060440  
2824.000000	99.793815  
2823.000000	100.485587 
2822.000000	101.133799 
2821.000000	101.748895 
2820.000000	102.334427 
2819.000000	102.898335 
2818.000000	103.436946 
2817.000000	103.952002 
2816.000000	104.443573 
2815.000000	104.916858 
2814.000000	105.371570 
2813.000000	105.806922 
2812.000000	106.220960 
2811.000000	106.614828 
2810.000000	106.988430 
2809.000000	107.339191 
2808.000000	107.665371 
2807.000000	107.970595 
2806.000000	108.259773 
2805.000000	108.530020 
2804.000000	108.777689 
2803.000000	109.005022 
2802.000000	109.220218 
2801.000000	109.423017 
2800.000000	109.611630 
2799.000000	109.784793 
2798.000000	109.942650 
2797.000000	110.079360 
2796.000000	110.197520 
2795.000000	110.308480 
2794.000000	110.423684 
2793.000000	110.540747 
2792.000000	110.657024 
2791.000000	110.774111 
2790.000000	110.890889 
2789.000000	110.997819 
2788.000000	111.092162 
2787.000000	111.181664 
2786.000000	111.273455 
2785.000000	111.366319 
2784.000000	111.459136 
2783.000000	111.552476 
2782.000000	111.642217 
2781.000000	111.721634 
2780.000000	111.791992 
2779.000000	111.860942 
2778.000000	111.930727 
2777.000000	111.997151 
2776.000000	112.057065 
2775.000000	112.109708 
2774.000000	112.151932 
2773.000000	112.182641 
2772.000000	112.207388 
2771.000000	112.235069 
2770.000000	112.269425 
2769.000000	112.310266 
2768.000000	112.356567 
2767.000000	112.407922 
2766.000000	112.461471 
2765.000000	112.514638 
2764.000000	112.565946 
2763.000000	112.614870 
2762.000000	112.660288 
2761.000000	112.701630 
2760.000000	112.739229 
2759.000000	112.774181 
2758.000000	112.806200 
2757.000000	112.832951 
2756.000000	112.852382 
2755.000000	112.866568 
2754.000000	112.879729 
2753.000000	112.893271 
2752.000000	112.907338 
2751.000000	112.923884 
2750.000000	112.943410 
2749.000000	112.959647 
2748.000000	112.966156 
2747.000000	112.964105 
2746.000000	112.959837 
2745.000000	112.955379 
2744.000000	112.951493 
2743.000000	112.951850 
2742.000000	112.958812 
2741.000000	112.968325 
2740.000000	112.977385 
2739.000000	112.986731 
2738.000000	112.993597 
2737.000000	112.989258 
2736.000000	112.971878 
2735.000000	112.949848 
2734.000000	112.928128 
2733.000000	112.901949 
2732.000000	112.868547 
2731.000000	112.833118 
2730.000000	112.800288 
2729.000000	112.770247 
2728.000000	112.745046 
2727.000000	112.726950 
2726.000000	112.710595 
2725.000000	112.689495 
2724.000000	112.668275 
2723.000000	112.657332 
2722.000000	112.658309 
2721.000000	112.664961 
2720.000000	112.675690 
2719.000000	112.693524 
2718.000000	112.718105 
2717.000000	112.744188 
2716.000000	112.768459 
2715.000000	112.790012 
2714.000000	112.809062 
2713.000000	112.826442 
2712.000000	112.844038 
2711.000000	112.861728 
2710.000000	112.876296 
2709.000000	112.884855 
2708.000000	112.888431 
2707.000000	112.891817 
2706.000000	112.898898 
2705.000000	112.908697 
2704.000000	112.917828 
2703.000000	112.926292 
2702.000000	112.937426 
2701.000000	112.952065 
2700.000000	112.967467 
2699.000000	112.981414 
2698.000000	112.992596 
2697.000000	112.998151 
2696.000000	112.996602 
2695.000000	112.992739 
2694.000000	112.992548 
2693.000000	112.995481 
2692.000000	112.997698 
2691.000000	112.999463 
2690.000000	113.001656 
2689.000000	113.001227 
2688.000000	112.998104 
2687.000000	112.998843 
2686.000000	113.006472 
2685.000000	113.016152 
2684.000000	113.026237 
2683.000000	113.044142 
2682.000000	113.071751 
2681.000000	113.099884 
2680.000000	113.122558 
2679.000000	113.144040 
2678.000000	113.166236 
2677.000000	113.184165 
2676.000000	113.197851 
2675.000000	113.215136 
2674.000000	113.238453 
2673.000000	113.262081 
2672.000000	113.282895 
2671.000000	113.303112 
2670.000000	113.322591 
2669.000000	113.338804 
2668.000000	113.353204 
2667.000000	113.369727 
2666.000000	113.387012 
2665.000000	113.401126 
2664.000000	113.411760 
2663.000000	113.421463 
2662.000000	113.429856 
2661.000000	113.434767 
2660.000000	113.436102 
2659.000000	113.436937 
2658.000000	113.440179 
2657.000000	113.446617 
2656.000000	113.454937 
2655.000000	113.462662 
2654.000000	113.467907 
2653.000000	113.470363 
2652.000000	113.471031 
2651.000000	113.471245 
2650.000000	113.471698 
2649.000000	113.471436 
2648.000000	113.469552 
2647.000000	113.467597 
2646.000000	113.467311 
2645.000000	113.467526 
2644.000000	113.466858 
2643.000000	113.468551 
2642.000000	113.476443 
2641.000000	113.488125 
2640.000000	113.499236 
2639.000000	113.510775 
2638.000000	113.524889 
2637.000000	113.538455 
2636.000000	113.549399 
2635.000000	113.563132 
2634.000000	113.582372 
2633.000000	113.600206 
2632.000000	113.612151 
2631.000000	113.624787 
2630.000000	113.643956 
2629.000000	113.664627 
2628.000000	113.681173 
2627.000000	113.695979 
2626.000000	113.709831 
2625.000000	113.717484 
2624.000000	113.718652 
2623.000000	113.720870 
2622.000000	113.727521 
2621.000000	113.734745 
2620.000000	113.741993 
2619.000000	113.752579 
2618.000000	113.763260 
2617.000000	113.766694 
2616.000000	113.762927 
2615.000000	113.758730 
2614.000000	113.756084 
2613.000000	113.752341 
2612.000000	113.748645 
2611.000000	113.747668 
2610.000000	113.747096 
2609.000000	113.743877 
2608.000000	113.740968 
2607.000000	113.742733 
2606.000000	113.747859 
2605.000000	113.751721 
2604.000000	113.754057 
2603.000000	113.758945 
2602.000000	113.769340 
2601.000000	113.783955 
2600.000000	113.798999 
2599.000000	113.812208 
2598.000000	113.823699 
2597.000000	113.832998 
2596.000000	113.839912 
2595.000000	113.847446 
2594.000000	113.859295 
2593.000000	113.873291 
2592.000000	113.884377 
2591.000000	113.893866 
2590.000000	113.907217 
2589.000000	113.923978 
2588.000000	113.939285 
2587.000000	113.953113 
2586.000000	113.968634 
2585.000000	113.983941 
2584.000000	113.996958 
2583.000000	114.012551 
2582.000000	114.033961 
2581.000000	114.054059 
2580.000000	114.066171 
2579.000000	114.075016 
2578.000000	114.086532 
2577.000000	114.097380 
2576.000000	114.104342 
2575.000000	114.112281 
2574.000000	114.122891 
2573.000000	114.129519 
2572.000000	114.130210 
2571.000000	114.132499 
2570.000000	114.138913 
2569.000000	114.142894 
2568.000000	114.142870 
2567.000000	114.145660 
2566.000000	114.152669 
2565.000000	114.157652 
2564.000000	114.159917 
2563.000000	114.164948 
2562.000000	114.172768 
2561.000000	114.176702 
2560.000000	114.174532 
2559.000000	114.170336 
2558.000000	114.166212 
2557.000000	114.160847 
2556.000000	114.154434 
2555.000000	114.148592 
2554.000000	114.143991 
2553.000000	114.140081 
2552.000000	114.137315 
2551.000000	114.137125 
2550.000000	114.139604 
2549.000000	114.142584 
2548.000000	114.143514 
2547.000000	114.143180 
2546.000000	114.145231 
2545.000000	114.150929 
2544.000000	114.157772 
2543.000000	114.164042 
2542.000000	114.170384 
2541.000000	114.175724 
2540.000000	114.178037 
2539.000000	114.179277 
2538.000000	114.183282 
2537.000000	114.188146 
2536.000000	114.188408 
2535.000000	114.184880 
2534.000000	114.182925 
2533.000000	114.183354 
2532.000000	114.184141 
2531.000000	114.187264 
2530.000000	114.194655 
2529.000000	114.201021 
2528.000000	114.201831 
2527.000000	114.201617 
2526.000000	114.205741 
2525.000000	114.210534 
2524.000000	114.212846 
2523.000000	114.217305 
2522.000000	114.226245 
2521.000000	114.232778 
2520.000000	114.233398 
2519.000000	114.234757 
2518.000000	114.240407 
2517.000000	114.244270 
2516.000000	114.243888 
2515.000000	114.245963 
2514.000000	114.252686 
2513.000000	114.257645 
2512.000000	114.258313 
2511.000000	114.259481 
2510.000000	114.263081 
2509.000000	114.265727 
2508.000000	114.267206 
2507.000000	114.271235 
2506.000000	114.276957 
2505.000000	114.280557 
2504.000000	114.281797 
2503.000000	114.283514 
2502.000000	114.285159 
2501.000000	114.285230 
2500.000000	114.285659 
2499.000000	114.288830 
2498.000000	114.292621 
2497.000000	114.293742 
2496.000000	114.292836 
2495.000000	114.293360 
2494.000000	114.296984 
2493.000000	114.302277 
2492.000000	114.307379 
2491.000000	114.312267 
2490.000000	114.318013 
2489.000000	114.323830 
2488.000000	114.328193 
2487.000000	114.332175 
2486.000000	114.337730 
2485.000000	114.342808 
2484.000000	114.343762 
2483.000000	114.342737 
2482.000000	114.345049 
2481.000000	114.350318 
2480.000000	114.354062 
2479.000000	114.356350 
2478.000000	114.360117 
2477.000000	114.362835 
2476.000000	114.361524 
2475.000000	114.360260 
2474.000000	114.362740 
2473.000000	114.363503 
2472.000000	114.358067 
2471.000000	114.352250 
2470.000000	114.351034 
2469.000000	114.348673 
2468.000000	114.340615 
2467.000000	114.332962 
2466.000000	114.329504 
2465.000000	114.323973 
2464.000000	114.312958 
2463.000000	114.303374 
2462.000000	114.299511 
2461.000000	114.295744 
2460.000000	114.288735 
2459.000000	114.282250 
2458.000000	114.277386 
2457.000000	114.270615 
2456.000000	114.263534 
2455.000000	114.261960 
2454.000000	114.264655 
2453.000000	114.264774 
2452.000000	114.261627 
2451.000000	114.259266 
2450.000000	114.256954 
2449.000000	114.251375 
2448.000000	114.244914 
2447.000000	114.241147 
2446.000000	114.237809 
2445.000000	114.230990 
2444.000000	114.223122 
2443.000000	114.218425 
2442.000000	114.216136 
2441.000000	114.212536 
2440.000000	114.207363 
2439.000000	114.203381 
2438.000000	114.201998 
2437.000000	114.201736 
2436.000000	114.201092 
2435.000000	114.201951 
2434.000000	114.206552 
2433.000000	114.212441 
2432.000000	114.215159 
2431.000000	114.216637 
2430.000000	114.222335 
2429.000000	114.230132 
2428.000000	114.233422 
2427.000000	114.232826 
2426.000000	114.233827 
2425.000000	114.234828 
2424.000000	114.230942 
2423.000000	114.225792 
2422.000000	114.226055 
2421.000000	114.228677 
2420.000000	114.228391 
2419.000000	114.228820 
2418.000000	114.233922 
2417.000000	114.236640 
2416.000000	114.230775 
2415.000000	114.221858 
2414.000000	114.216113 
2413.000000	114.209413 
2412.000000	114.198660 
2411.000000	114.189791 
2410.000000	114.184927 
2409.000000	114.176630 
2408.000000	114.162516 
2407.000000	114.150333 
2406.000000	114.142799 
2405.000000	114.133167 
2404.000000	114.118909 
2403.000000	114.104771 
2402.000000	114.090490 
2401.000000	114.070916 
2400.000000	114.048242 
2399.000000	114.030599 
2398.000000	114.017987 
2397.000000	114.003849 
2396.000000	113.986825 
2395.000000	113.971233 
2394.000000	113.956999 
2393.000000	113.941955 
2392.000000	113.928151 
2391.000000	113.920688 
2390.000000	113.918900 
2389.000000	113.917207 
2388.000000	113.910007 
2387.000000	113.898110 
2386.000000	113.884139 
2385.000000	113.867545 
2384.000000	113.843297 
2383.000000	113.810944 
2382.000000	113.774585 
2381.000000	113.734745 
2380.000000	113.686370 
2379.000000	113.630819 
2378.000000	113.573551 
2377.000000	113.509321 
2376.000000	113.426685 
2375.000000	113.328957 
2374.000000	113.228011 
2373.000000	113.120603 
2372.000000	112.997341 
2371.000000	112.868666 
2370.000000	112.743186 
2369.000000	112.601017 
2368.000000	112.430167 
2367.000000	112.267947 
2366.000000	112.145256 
2365.000000	112.036728 
2364.000000	111.918854 
2363.000000	111.830544 
2362.000000	111.803793 
2361.000000	111.801004 
2360.000000	111.787056 
2359.000000	111.796069 
2358.000000	111.863183 
2357.000000	111.960864 
2356.000000	112.059760 
2355.000000	112.181782 
2354.000000	112.345910 
2353.000000	112.527537 
2352.000000	112.703514 
2351.000000	112.875151 
2350.000000	113.024497 
2349.000000	113.104319 
2348.000000	113.087749 
2347.000000	112.989878 
2346.000000	112.839055 
2345.000000	112.668275 
2344.000000	112.524032 
2343.000000	112.441468 
2342.000000	112.410783 
2341.000000	112.400078 
2340.000000	112.399291 
2339.000000	112.419128 
2338.000000	112.456774 
2337.000000	112.495565 
2336.000000	112.525558 
2335.000000	112.548732 
2334.000000	112.566661 
2333.000000	112.576532 
2332.000000	112.580227 
2331.000000	112.588810 
2330.000000	112.616038 
2329.000000	112.661051 
2328.000000	112.711858 
2327.000000	112.762212 
2326.000000	112.816524 
2325.000000	112.870454 
2324.000000	112.912535 
2323.000000	112.947344 
2322.000000	112.991476 
2321.000000	113.044977 
2320.000000	113.094496 
2319.000000	113.143062 
2318.000000	113.203811 
2317.000000	113.267755 
2316.000000	113.312768 
2315.000000	113.339328 
2314.000000	113.364791 
2313.000000	113.391637 
2312.000000	113.412785 
2311.000000	113.434815 
2310.000000	113.466811 
2309.000000	113.500022 
2308.000000	113.525772 
2307.000000	113.553953 
2306.000000	113.594031 
2305.000000	113.634920 
2304.000000	113.664531 
2303.000000	113.687658 
2302.000000	113.710474 
2301.000000	113.728070 
2300.000000	113.741350 
2299.000000	113.761496 
2298.000000	113.789105 
2297.000000	113.810634 
2296.000000	113.822507 
2295.000000	113.836145 
2294.000000	113.856267 
2293.000000	113.874387 
2292.000000	113.886523 
2291.000000	113.898229 
2290.000000	113.911199 
2289.000000	113.921356 
2288.000000	113.929486 
2287.000000	113.940286 
2286.000000	113.952779 
2285.000000	113.962149 
2284.000000	113.967895 
2283.000000	113.973093 
2282.000000	113.978362 
2281.000000	113.982844 
2280.000000	113.987326 
2279.000000	113.993525 
2278.000000	114.000678 
2277.000000	114.005184 
2276.000000	114.004874 
2275.000000	114.003562 
2274.000000	114.007139 
2273.000000	114.015054 
2272.000000	114.020872 
2271.000000	114.023065 
2270.000000	114.025688 
2269.000000	114.028263 
2268.000000	114.025902 
2267.000000	114.020514 
2266.000000	114.018845 
2265.000000	114.019775 
2264.000000	114.016485 
2263.000000	114.010834 
2262.000000	114.009952 
2261.000000	114.011287 
2260.000000	114.008426 
2259.000000	114.004707 
2258.000000	114.005637 
2257.000000	114.004921 
2256.000000	113.996076 
2255.000000	113.986802 
2254.000000	113.984513 
2253.000000	113.982415 
2252.000000	113.973951 
2251.000000	113.966846 
2250.000000	113.966345 
2249.000000	113.963198 
2248.000000	113.951730 
2247.000000	113.941335 
2246.000000	113.938045 
2245.000000	113.935184 
2244.000000	113.930439 
2243.000000	113.931679 
2242.000000	113.939166 
2241.000000	113.942289 
2240.000000	113.938593 
2239.000000	113.937282 
2238.000000	113.941884 
2237.000000	113.946437 
2236.000000	113.949108 
2235.000000	113.953518 
2234.000000	113.958120 
2233.000000	113.958382 
2232.000000	113.957095 
2231.000000	113.960146 
2230.000000	113.966202 
2229.000000	113.969635 
2228.000000	113.969898 
2227.000000	113.971018 
2226.000000	113.974761 
2225.000000	113.978171 
2224.000000	113.978648 
2223.000000	113.978433 
2222.000000	113.981461 
2221.000000	113.986396 
2220.000000	113.987231 
2219.000000	113.983845 
2218.000000	113.982510 
2217.000000	113.983798 
2216.000000	113.981342 
2215.000000	113.974308 
2214.000000	113.969039 
2213.000000	113.965654 
2212.000000	113.958382 
2211.000000	113.949584 
2210.000000	113.946366 
2209.000000	113.945055 
2208.000000	113.936877 
2207.000000	113.925075 
2206.000000	113.918519 
2205.000000	113.913273 
2204.000000	113.902020 
2203.000000	113.890957 
2202.000000	113.888001 
2201.000000	113.886308 
2200.000000	113.878655 
2199.000000	113.873362 
2198.000000	113.877463 
2197.000000	113.880658 
2196.000000	113.874125 
2195.000000	113.866114 
2194.000000	113.863539 
2193.000000	113.858962 
2192.000000	113.848662 
2191.000000	113.841915 
2190.000000	113.842058 
2189.000000	113.838791 
2188.000000	113.827514 
2187.000000	113.816165 
2186.000000	113.809156 
2185.000000	113.801836 
2184.000000	113.792943 
2183.000000	113.786482 
2182.000000	113.780736 
2181.000000	113.769483 
2180.000000	113.753938 
2179.000000	113.740110 
2178.000000	113.727831 
2177.000000	113.712716 
2176.000000	113.696002 
2175.000000	113.682627 
2174.000000	113.673567 
2173.000000	113.665223 
2172.000000	113.655948 
2171.000000	113.647866 
2170.000000	113.643121 
2169.000000	113.638806 
2168.000000	113.630390 
2167.000000	113.619899 
2166.000000	113.614845 
2165.000000	113.616514 
2164.000000	113.618636 
2163.000000	113.620090 
2162.000000	113.626408 
2161.000000	113.635730 
2160.000000	113.639521 
2159.000000	113.639163 
2158.000000	113.644385 
2157.000000	113.655018 
2156.000000	113.662576 
2155.000000	113.668775 
2154.000000	113.681268 
2153.000000	113.694906 
2152.000000	113.699078 
2151.000000	113.697934 
2150.000000	113.701200 
2149.000000	113.704609 
2148.000000	113.701581 
2147.000000	113.700485 
2146.000000	113.708901 
2145.000000	113.716197 
2144.000000	113.713407 
2143.000000	113.710904 
2142.000000	113.716864 
2141.000000	113.720250 
2140.000000	113.712668 
2139.000000	113.704919 
2138.000000	113.706564 
2137.000000	113.710331 
2136.000000	113.709950 
2135.000000	113.710546 
2134.000000	113.713932 
2133.000000	113.713383 
2132.000000	113.708472 
2131.000000	113.706755 
2130.000000	113.707852 
2129.000000	113.703393 
2128.000000	113.693547 
2127.000000	113.686704 
2126.000000	113.684582 
2125.000000	113.681602 
2124.000000	113.676071 
2123.000000	113.670825 
2122.000000	113.665318 
2121.000000	113.656187 
2120.000000	113.643932 
2119.000000	113.633441 
2118.000000	113.628005 
2117.000000	113.625764 
2116.000000	113.622212 
2115.000000	113.616561 
2114.000000	113.611221 
2113.000000	113.604640 
2112.000000	113.591575 
2111.000000	113.573551 
2110.000000	113.559174 
2109.000000	113.549852 
2108.000000	113.538527 
2107.000000	113.525676 
2106.000000	113.519048 
2105.000000	113.515830 
2104.000000	113.504767 
2103.000000	113.487458 
2102.000000	113.474917 
2101.000000	113.464903 
2100.000000	113.446974 
2099.000000	113.425922 
2098.000000	113.412952 
2097.000000	113.401627 
2096.000000	113.380002 
2095.000000	113.355064 
2094.000000	113.339042 
2093.000000	113.324904 
2092.000000	113.300728 
2091.000000	113.273406 
2090.000000	113.253402 
2089.000000	113.235259 
2088.000000	113.212752 
2087.000000	113.193941 
2086.000000	113.182616 
2085.000000	113.166737 
2084.000000	113.140344 
2083.000000	113.114142 
2082.000000	113.093829 
2081.000000	113.070964 
2080.000000	113.044214 
2079.000000	113.024926 
2078.000000	113.016176 
2077.000000	113.006854 
2076.000000	112.991309 
2075.000000	112.975668 
2074.000000	112.963557 
2073.000000	112.951993 
2072.000000	112.941813 
2071.000000	112.937235 
2070.000000	112.936258 
2069.000000	112.932586 
2068.000000	112.924385 
2067.000000	112.913656 
2066.000000	112.900304 
2065.000000	112.882900 
2064.000000	112.863183 
2063.000000	112.846302 
2062.000000	112.835717 
2061.000000	112.827968 
2060.000000	112.816739 
2059.000000	112.802815 
2058.000000	112.792134 
2057.000000	112.782001 
2056.000000	112.762308 
2055.000000	112.734746 
2054.000000	112.712979 
2053.000000	112.699055 
2052.000000	112.681388 
2051.000000	112.659096 
2050.000000	112.643361 
2049.000000	112.632775 
2048.000000	112.614846 
2047.000000	112.592411 
2046.000000	112.578415 
2045.000000	112.568712 
2044.000000	112.550115 
2043.000000	112.528824 
2042.000000	112.519526 
2041.000000	112.517356 
2040.000000	112.511229 
2039.000000	112.509584 
2038.000000	112.522554 
2037.000000	112.539052 
2036.000000	112.548422 
2035.000000	112.562131 
2034.000000	112.589144 
2033.000000	112.615728 
2032.000000	112.631154 
2031.000000	112.647914 
2030.000000	112.674903 
2029.000000	112.700152 
2028.000000	112.715697 
2027.000000	112.732243 
2026.000000	112.756490 
2025.000000	112.779474 
2024.000000	112.795424 
2023.000000	112.810587 
2022.000000	112.827801 
2021.000000	112.841844 
2020.000000	112.852215 
2019.000000	112.864375 
2018.000000	112.878489 
2017.000000	112.889337 
2016.000000	112.895870 
2015.000000	112.902975 
2014.000000	112.912964 
2013.000000	112.923359 
2012.000000	112.931632 
2011.000000	112.939500 
2010.000000	112.950181 
2009.000000	112.962388 
2008.000000	112.970280 
2007.000000	112.973403 
2006.000000	112.978410 
2005.000000	112.986922 
2004.000000	112.991666 
2003.000000	112.992358 
2002.000000	112.998342 
2001.000000	113.009738 
2000.000000	113.014364 
1999.000000	113.011193 
1998.000000	113.012671 
1997.000000	113.019084 
1996.000000	113.018965 
1995.000000	113.015389 
1994.000000	113.020849 
1993.000000	113.027477 
1992.000000	113.018250 
1991.000000	113.002467 
1990.000000	113.001227 
1989.000000	113.007950 
1988.000000	113.003921 
1987.000000	112.997579 
1986.000000	113.006901 
1985.000000	113.021230 
1984.000000	113.021349 
1983.000000	113.014841 
1982.000000	113.016033 
1981.000000	113.016629 
1980.000000	113.006544 
1979.000000	112.997746 
1978.000000	112.999749 
1977.000000	112.999606 
1976.000000	112.988710 
1975.000000	112.979507 
1974.000000	112.979340 
1973.000000	112.977051 
1972.000000	112.967681 
1971.000000	112.962555 
1970.000000	112.966132 
1969.000000	112.966966 
1968.000000	112.958288 
1967.000000	112.947559 
1966.000000	112.941646 
1965.000000	112.938475 
1964.000000	112.934732 
1963.000000	112.931489 
1962.000000	112.929821 
1961.000000	112.927722 
1960.000000	112.922406 
1959.000000	112.915134 
1958.000000	112.910008 
1957.000000	112.906622 
1956.000000	112.898445 
1955.000000	112.884950 
1954.000000	112.876033 
1953.000000	112.875914 
1952.000000	112.874841 
1951.000000	112.867784 
1950.000000	112.863302 
1949.000000	112.863540 
1948.000000	112.857317 
1947.000000	112.844634 
1946.000000	112.840461 
1945.000000	112.844419 
1944.000000	112.837910 
1943.000000	112.819218 
1942.000000	112.807726 
1941.000000	112.808871 
1940.000000	112.810111 
1939.000000	112.811660 
1938.000000	112.823462 
1937.000000	112.835383 
1936.000000	112.830829 
1935.000000	112.821912 
1934.000000	112.829470 
1933.000000	112.843871 
1932.000000	112.845993 
1931.000000	112.845826 
1930.000000	112.858605 
1929.000000	112.869691 
1928.000000	112.864089 
1927.000000	112.859201 
1926.000000	112.871670 
1925.000000	112.883424 
1924.000000	112.874579 
1923.000000	112.857842 
1922.000000	112.851572 
1921.000000	112.850451 
1920.000000	112.845134 
1919.000000	112.840175 
1918.000000	112.836766 
1917.000000	112.826466 
1916.000000	112.811684 
1915.000000	112.805938 
1914.000000	112.809610 
1913.000000	112.808585 
1912.000000	112.798070 
1911.000000	112.786293 
1910.000000	112.775373 
1909.000000	112.758708 
1908.000000	112.735819 
1907.000000	112.715077 
1906.000000	112.701416 
1905.000000	112.690496 
1904.000000	112.675547 
1903.000000	112.656974 
1902.000000	112.640380 
1901.000000	112.624931 
1900.000000	112.602853 
1899.000000	112.576055 
1898.000000	112.557649 
1897.000000	112.546277 
1896.000000	112.522101 
1895.000000	112.483668 
1894.000000	112.456417 
1893.000000	112.449526 
1892.000000	112.439274 
1891.000000	112.411737 
1890.000000	112.380433 
1889.000000	112.350583 
1888.000000	112.312006 
1887.000000	112.274837 
1886.000000	112.260937 
1885.000000	112.258863 
1884.000000	112.239050 
1883.000000	112.208771 
1882.000000	112.195920 
1881.000000	112.192106 
1880.000000	112.171339 
1879.000000	112.146782 
1878.000000	112.145018 
1877.000000	112.151980 
1876.000000	112.142252 
1875.000000	112.131118 
1874.000000	112.140488 
1873.000000	112.152910 
1872.000000	112.149095 
1871.000000	112.147164 
1870.000000	112.157773 
1869.000000	112.155270 
1868.000000	112.130999 
1867.000000	112.120723 
1866.000000	112.144064 
1865.000000	112.173008 
1864.000000	112.186431 
1863.000000	112.201309 
1862.000000	112.229371 
1861.000000	112.254691 
1860.000000	112.268424 
1859.000000	112.283611 
1858.000000	112.306714 
1857.000000	112.326550 
1856.000000	112.336421 
1855.000000	112.343525 
1854.000000	112.354445 
1853.000000	112.366700 
1852.000000	112.375283 
1851.000000	112.381339 
1850.000000	112.390208 
1849.000000	112.399625 
1848.000000	112.397694 
1847.000000	112.384557 
1846.000000	112.375688 
1845.000000	112.369465 
1844.000000	112.341165 
1843.000000	112.294554 
1842.000000	112.271451 
1841.000000	112.282681 
1840.000000	112.285566 
1839.000000	112.260651 
1838.000000	112.240481 
1837.000000	112.235260 
1836.000000	112.212085 
1835.000000	112.173056 
1834.000000	112.161922 
1833.000000	112.176251 
1832.000000	112.164092 
1831.000000	112.117576 
1830.000000	112.076973 
1829.000000	112.045383 
1828.000000	111.996889 
1827.000000	111.951065 
1826.000000	111.938381 
1825.000000	111.921954 
1824.000000	111.858081 
1823.000000	111.786031 
1822.000000	111.757898 
1821.000000	111.738657 
1820.000000	111.677932 
1819.000000	111.604690 
1818.000000	111.558151 
1817.000000	111.505842 
1816.000000	111.419034 
1815.000000	111.338615 
1814.000000	111.293435 
1813.000000	111.237668 
1812.000000	111.135935 
1811.000000	111.021637 
1810.000000	110.925936 
1809.000000	110.828590 
1808.000000	110.715126 
1807.000000	110.606813 
1806.000000	110.512518 
1805.000000	110.411119 
1804.000000	110.292792 
1803.000000	110.168170 
1802.000000	110.035014 
1801.000000	109.877586 
1800.000000	109.696888 
1799.000000	109.518313 
1798.000000	109.362030 
1797.000000	109.222507 
1796.000000	109.074449 
1795.000000	108.906817 
1794.000000	108.721995 
1793.000000	108.504533 
1792.000000	108.221530 
1791.000000	107.901859 
1790.000000	107.635664 
1789.000000	107.453370 
1788.000000	107.266950 
1787.000000	107.008528 
1786.000000	106.711101 
1785.000000	106.413197 
1784.000000	106.082868 
1783.000000	105.721879 
1782.000000	105.377459 
1781.000000	105.011391 
1780.000000	104.532623 
1779.000000	104.000902 
1778.000000	103.554201 
1777.000000	103.142833 
1776.000000	102.629113 
1775.000000	102.060317 
1774.000000	101.504158 
1773.000000	100.745844 
1772.000000	99.630808  
1771.000000	98.441171  
1770.000000	97.530794  
1769.000000	96.696710  
1768.000000	95.546102  
1767.000000	94.131135  
1766.000000	92.856597  
1765.000000	91.725158  
1764.000000	90.379524  
1763.000000	88.498878  
1762.000000	86.112499  
1761.000000	83.455681  
1760.000000	80.870532  
1759.000000	78.360152  
1758.000000	75.304865  
1757.000000	71.088123  
1756.000000	66.128182  
1755.000000	61.486554  
1754.000000	57.341313  
1753.000000	52.667880  
1752.000000	46.624064  
1751.000000	39.503574  
1750.000000	32.191991  
1749.000000	25.460386  
1748.000000	19.976329  
1747.000000	16.057062  
1746.000000	13.343906  
1745.000000	11.309695  
1744.000000	10.020709  
1743.000000	9.596681   
1742.000000	9.742426   
1741.000000	10.427522  
1740.000000	12.340950  
1739.000000	15.400838  
1738.000000	18.331861  
1737.000000	20.597910  
1736.000000	23.886513  
1735.000000	30.031728  
1734.000000	38.511610  
1733.000000	46.831750  
1732.000000	53.246235  
1731.000000	58.020162  
1730.000000	62.462687  
1729.000000	67.137312  
1728.000000	71.494412  
1727.000000	74.938416  
1726.000000	77.709221  
1725.000000	80.388498  
1724.000000	83.100533  
1723.000000	85.515379  
1722.000000	87.381124  
1721.000000	88.759779  
1720.000000	89.958858  
1719.000000	91.283273  
1718.000000	92.818331  
1717.000000	94.320774  
1716.000000	95.540356  
1715.000000	96.404600  
1714.000000	97.040939  
1713.000000	97.574114  
1712.000000	98.075556  
1711.000000	98.530769  
1710.000000	98.934555  
1709.000000	99.278831  
1708.000000	99.575543  
1707.000000	99.818563  
1706.000000	100.007581 
1705.000000	100.129032 
1704.000000	100.190067 
1703.000000	100.229716 
1702.000000	100.323462 
1701.000000	100.517797 
1700.000000	100.785446 
1699.000000	101.064157 
1698.000000	101.360917 
1697.000000	101.751184 
1696.000000	102.272439 
1695.000000	102.837705 
1694.000000	103.294944 
1693.000000	103.592896 
1692.000000	103.844523 
1691.000000	104.164719 
1690.000000	104.507398 
1689.000000	104.767537 
1688.000000	104.964327 
1687.000000	105.176854 
1686.000000	105.387139 
1685.000000	105.556106 
1684.000000	105.741214 
1683.000000	105.977845 
1682.000000	106.165361 
1681.000000	106.247425 
1680.000000	106.327891 
1679.000000	106.478905 
1678.000000	106.608748 
1677.000000	106.670546 
1676.000000	106.756496 
1675.000000	106.898784 
1674.000000	106.988644 
1673.000000	106.997752 
1672.000000	107.027292 
1671.000000	107.088208 
1670.000000	107.059693 
1669.000000	106.917500 
1668.000000	106.780672 
1667.000000	106.703877 
1666.000000	106.608104 
1665.000000	106.424498 
1664.000000	106.140708 
1663.000000	105.735874 
1662.000000	105.222749 
1661.000000	104.717874 
1660.000000	104.330182 
1659.000000	104.036498 
1658.000000	103.765177 
1657.000000	103.530645 
1656.000000	103.377008 
1655.000000	103.285503 
1654.000000	103.215074 
1653.000000	103.186202 
1652.000000	103.233027 
1651.000000	103.342676 
1650.000000	103.475880 
1649.000000	103.638005 
1648.000000	103.865528 
1647.000000	104.163670 
1646.000000	104.472494 
1645.000000	104.736638 
1644.000000	104.990077 
1643.000000	105.331230 
1642.000000	105.797314 
1641.000000	106.324815 
1640.000000	106.837224 
1639.000000	107.315301 
1638.000000	107.773065 
1637.000000	108.226919 
1636.000000	108.683896 
1635.000000	109.103989 
1634.000000	109.401988 
1633.000000	109.554243 
1632.000000	109.652090 
1631.000000	109.782576 
1630.000000	109.916019 
1629.000000	110.000348 
1628.000000	110.063767 
1627.000000	110.145711 
1626.000000	110.209655 
1625.000000	110.231399 
1624.000000	110.259032 
1623.000000	110.322499 
1622.000000	110.373783 
1621.000000	110.397768 
1620.000000	110.449075 
1619.000000	110.540604 
1618.000000	110.608053 
1617.000000	110.629200 
1616.000000	110.655903 
1615.000000	110.711503 
1614.000000	110.761284 
1613.000000	110.794734 
1612.000000	110.840272 
1611.000000	110.894274 
1610.000000	110.922718 
1609.000000	110.927081 
1608.000000	110.939550 
1607.000000	110.964488 
1606.000000	110.981678 
1605.000000	110.990023 
1604.000000	111.005187 
1603.000000	111.026692 
1602.000000	111.041188 
1601.000000	111.045598 
1600.000000	111.051726 
1599.000000	111.066722 
1598.000000	111.079812 
1597.000000	111.073923 
1596.000000	111.053419 
1595.000000	111.040186 
1594.000000	111.038661 
1593.000000	111.031126 
1592.000000	111.016821 
1591.000000	111.014723 
1590.000000	111.019563 
1589.000000	111.007094 
1588.000000	110.987472 
1587.000000	110.990619 
1586.000000	111.002564 
1585.000000	110.988306 
1584.000000	110.965871 
1583.000000	110.974001 
1582.000000	110.991096 
1581.000000	110.980606 
1580.000000	110.975790 
1579.000000	111.013293 
1578.000000	111.041212 
1577.000000	111.004877 
1576.000000	110.954070 
1575.000000	110.953402 
1574.000000	110.974144 
1573.000000	110.975337 
1572.000000	110.990452 
1571.000000	111.037564 
1570.000000	111.054205 
1569.000000	111.012887 
1568.000000	110.983014 
1567.000000	111.005496 
1566.000000	111.025214 
1565.000000	111.005568 
1564.000000	110.992121 
1563.000000	111.018300 
1562.000000	111.054825 
1561.000000	111.079144 
1560.000000	111.096167 
1559.000000	111.086106 
1558.000000	111.025667 
1557.000000	110.954546 
1556.000000	110.933947 
1555.000000	110.952591 
1554.000000	110.953330 
1553.000000	110.925364 
1552.000000	110.906600 
1551.000000	110.912728 
1550.000000	110.913825 
1549.000000	110.883975 
1548.000000	110.850572 
1547.000000	110.859203 
1546.000000	110.886669 
1545.000000	110.859084 
1544.000000	110.789918 
1543.000000	110.780310 
1542.000000	110.827112 
1541.000000	110.794591 
1540.000000	110.655021 
1539.000000	110.556769 
1538.000000	110.573267 
1537.000000	110.601544 
1536.000000	110.579085 
1535.000000	110.566473 
1534.000000	110.566759 
1533.000000	110.502791 
1532.000000	110.402774 
1531.000000	110.376310 
1530.000000	110.403609 
1529.000000	110.376000 
1528.000000	110.309553 
1527.000000	110.288143 
1526.000000	110.272622 
1525.000000	110.196685 
1524.000000	110.136675 
1523.000000	110.156345 
1522.000000	110.138368 
1521.000000	109.997677 
1520.000000	109.869432 
1519.000000	109.874033 
1518.000000	109.896278 
1517.000000	109.805679 
1516.000000	109.682941 
1515.000000	109.644460 
1514.000000	109.640574 
1513.000000	109.584379 
1512.000000	109.509611 
1511.000000	109.481620 
1510.000000	109.476518 
1509.000000	109.428787 
1508.000000	109.313058 
1507.000000	109.146428 
1506.000000	108.968925 
1505.000000	108.829450 
1504.000000	108.754205 
1503.000000	108.723354 
1502.000000	108.689618 
1501.000000	108.616924 
1500.000000	108.512949 
1499.000000	108.411717 
1498.000000	108.308458 
1497.000000	108.146882 
1496.000000	107.927823 
1495.000000	107.747483 
1494.000000	107.660508 
1493.000000	107.580828 
1492.000000	107.427835 
1491.000000	107.236051 
1490.000000	107.036900 
1489.000000	106.761312 
1488.000000	106.409239 
1487.000000	106.105542 
1486.000000	105.899095 
1485.000000	105.654501 
1484.000000	105.336451 
1483.000000	105.035591 
1482.000000	104.695415 
1481.000000	104.167795 
1480.000000	103.593564 
1479.000000	103.170704 
1478.000000	102.666664 
1477.000000	101.788830 
1476.000000	100.823569 
1475.000000	99.985837  
1474.000000	98.525857  
1473.000000	95.608711  
1472.000000	91.742753  
1471.000000	88.143920  
1470.000000	85.126829  
1469.000000	82.203650  
1468.000000	79.274654  
1467.000000	76.604270  
1466.000000	74.185633  
1465.000000	72.029209  
1464.000000	70.572233  
1463.000000	70.066070  
1462.000000	70.098805  
1461.000000	70.206284  
1460.000000	70.385813  
1459.000000	70.652794  
1458.000000	70.788598  
1457.000000	70.812940  
1456.000000	71.101284  
1455.000000	71.775054  
1454.000000	72.530841  
1453.000000	73.162078  
1452.000000	73.764920  
1451.000000	74.331998  
1450.000000	74.630975  
1449.000000	74.582552  
1448.000000	74.326539  
1447.000000	73.952627  
1446.000000	73.429536  
1445.000000	72.788834  
1444.000000	72.011494  
1443.000000	70.945286  
1442.000000	69.489264  
1441.000000	67.802286  
1440.000000	66.039109  
1439.000000	64.167475  
1438.000000	62.208890  
1437.000000	60.579442  
1436.000000	59.945082  
1435.000000	60.708880  
1434.000000	62.742567  
1433.000000	65.617895  
1432.000000	69.029927  
1431.000000	72.840714  
1430.000000	76.755356  
1429.000000	80.228066  
1428.000000	82.828974  
1427.000000	84.595108  
1426.000000	85.885596  
1425.000000	86.983609  
1424.000000	87.898969  
1423.000000	88.524389  
1422.000000	88.884282  
1421.000000	89.205765  
1420.000000	89.734959  
1419.000000	90.569138  
1418.000000	91.618466  
1417.000000	92.757511  
1416.000000	93.881821  
1415.000000	94.992876  
1414.000000	96.104431  
1413.000000	97.216391  
1412.000000	98.237633  
1411.000000	99.083304  
1410.000000	99.710440  
1409.000000	100.137543 
1408.000000	100.370168 
1407.000000	100.369572 
1406.000000	100.071477 
1405.000000	99.458217  
1404.000000	98.607826  
1403.000000	97.666192  
1402.000000	96.766090  
1401.000000	95.966982  
1400.000000	95.290207  
1399.000000	94.771432  
1398.000000	94.437313  
1397.000000	94.242000  
1396.000000	94.087505  
1395.000000	93.926262  
1394.000000	93.846821  
1393.000000	94.008255  
1392.000000	94.478106  
1391.000000	95.167326  
1390.000000	95.984983  
1389.000000	96.943998  
1388.000000	98.019480  
1387.000000	98.998165  
1386.000000	99.625372  
1385.000000	99.838638  
1384.000000	99.704718  
1383.000000	99.257063  
1382.000000	98.518347  
1381.000000	97.589755  
1380.000000	96.577310  
1379.000000	95.527148  
1378.000000	94.503355  
1377.000000	93.581223  
1376.000000	92.723369  
1375.000000	91.814351  
1374.000000	90.879917  
1373.000000	90.099477  
1372.000000	89.572095  
1371.000000	89.204216  
1370.000000	88.866829  
1369.000000	88.515472  
1368.000000	88.151979  
1367.000000	87.771058  
1366.000000	87.390947  
1365.000000	87.033057  
1364.000000	86.704683  
1363.000000	86.426663  
1362.000000	86.284613  
1361.000000	86.343431  
1360.000000	86.584687  
1359.000000	86.927747  
1358.000000	87.330698  
1357.000000	87.777686  
1356.000000	88.253784  
1355.000000	88.725090  
1354.000000	89.180541  
1353.000000	89.628148  
1352.000000	90.087509  
1351.000000	90.570449  
1350.000000	91.085028  
1349.000000	91.633844  
1348.000000	92.218899  
1347.000000	92.832970  
1346.000000	93.460536  
1345.000000	94.083094  
1344.000000	94.680047  
1343.000000	95.222067  
1342.000000	95.690774  
1341.000000	96.093130  
1340.000000	96.433568  
1339.000000	96.678733  
1338.000000	96.800208  
1337.000000	96.824073  
1336.000000	96.809101  
1335.000000	96.771788  
1334.000000	96.694135  
1333.000000	96.562361  
1332.000000	96.375489  
1331.000000	96.113491  
1330.000000	95.760822  
1329.000000	95.326280  
1328.000000	94.838500  
1327.000000	94.315814  
1326.000000	93.782091  
1325.000000	93.271207  
1324.000000	92.821741  
1323.000000	92.455410  
1322.000000	92.184472  
1321.000000	92.011976  
1320.000000	91.930413  
1319.000000	91.917967  
1318.000000	91.946411  
1317.000000	91.988921  
1316.000000	92.023634  
1315.000000	92.027282  
1314.000000	91.974663  
1313.000000	91.849279  
1312.000000	91.661810  
1311.000000	91.446924  
1310.000000	91.249895  
1309.000000	91.113018  
1308.000000	91.068601  
1307.000000	91.119956  
1306.000000	91.234993  
1305.000000	91.371870  
1304.000000	91.502237  
1303.000000	91.615271  
1302.000000	91.698408  
1301.000000	91.750454  
1300.000000	91.777586  
1299.000000	91.788554  
1298.000000	91.777110  
1297.000000	91.743850  
1296.000000	91.695213  
1295.000000	91.633987  
1294.000000	91.545510  
1293.000000	91.411113  
1292.000000	91.212749  
1291.000000	90.927505  
1290.000000	90.529656  
1289.000000	90.007758  
1288.000000	89.374375  
1287.000000	88.656520  
1286.000000	87.887310  
1285.000000	87.100338  
1284.000000	86.331462  
1283.000000	85.611939  
1282.000000	84.966683  
1281.000000	84.406089  
1280.000000	83.927154  
1279.000000	83.511233  
1278.000000	83.127045  
1277.000000	82.736229  
1276.000000	82.306551  
1275.000000	81.822752  
1274.000000	81.279659  
1273.000000	80.685758  
1272.000000	80.067801  
1271.000000	79.470443  
1270.000000	78.926348  
1269.000000	78.446531  
1268.000000	78.033161  
1267.000000	77.691555  
1266.000000	77.417969  
1265.000000	77.199244  
1264.000000	77.028226  
1263.000000	76.897549  
1262.000000	76.777839  
1261.000000	76.622986  
1260.000000	76.404786  
1259.000000	76.114130  
1258.000000	75.743865  
1257.000000	75.284528  
1256.000000	74.750423  
1255.000000	74.162459  
1254.000000	73.535108  
1253.000000	72.874069  
1252.000000	72.207808  
1251.000000	71.566247  
1250.000000	70.974636  
1249.000000	70.452833  
1248.000000	70.039916  
1247.000000	69.768500  
1246.000000	69.653201  
1245.000000	69.690489  
1244.000000	69.876003  
1243.000000	70.192217  
1242.000000	70.609974  
1241.000000	71.099448  
1240.000000	71.644854  
1239.000000	72.232770  
1238.000000	72.846555  
1237.000000	73.466825  
1236.000000	74.077153  
1235.000000	74.660682  
1234.000000	75.201082  
1233.000000	75.684094  
1232.000000	76.101040  
1231.000000	76.444506  
1230.000000	76.708197  
1229.000000	76.881885  
1228.000000	76.962804  
1227.000000	76.949858  
1226.000000	76.850724  
1225.000000	76.664972  
1224.000000	76.407265  
1223.000000	76.091957  
1222.000000	75.739264  
1221.000000	75.343132  
1220.000000	74.906492  
1219.000000	74.427747  
1218.000000	73.912930  
1217.000000	73.348283  
1216.000000	72.739505  
1215.000000	72.096872  
1214.000000	71.425580  
1213.000000	70.707678  
1212.000000	69.940924  
1211.000000	69.134831  
1210.000000	68.286371  
1209.000000	67.372608  
1208.000000	66.389036  
1207.000000	65.348672  
1206.000000	64.257359  
1205.000000	63.110470  
1204.000000	61.932682  
1203.000000	60.765552  
1202.000000	59.646201  
1201.000000	58.604764  
1200.000000	57.700371  
1199.000000	57.000756  
1198.000000	56.554412  
1197.000000	56.395387  
1196.000000	56.558370  
1195.000000	57.067656  
1194.000000	57.902193  
1193.000000	59.016990  
1192.000000	60.348224  
1191.000000	61.814689  
1190.000000	63.300490  
1189.000000	64.680147  
1188.000000	65.840721  
1187.000000	66.686916  
1186.000000	67.145943  
1185.000000	67.173480  
1184.000000	66.770076  
1183.000000	65.972161  
1182.000000	64.843750  
1181.000000	63.458943  
1180.000000	61.905860  
1179.000000	60.285544  
1178.000000	58.698415  
1177.000000	57.222199  
1176.000000	55.918693  
1175.000000	54.849839  
1174.000000	54.064965  
1173.000000	53.582048  
1172.000000	53.398108  
1171.000000	53.520965  
1170.000000	53.941512  
1169.000000	54.631328  
1168.000000	55.545449  
1167.000000	56.676769  
1166.000000	57.999992  
1165.000000	59.481763  
1164.000000	61.067581  
1163.000000	62.741422  
1162.000000	64.469242  
1161.000000	66.214632  
1160.000000	67.940306  
1159.000000	69.643855  
1158.000000	71.315431  
1157.000000	72.939658  
1156.000000	74.511170  
1155.000000	76.043033  
1154.000000	77.531981  
1153.000000	78.955578  
1152.000000	80.294823  
1151.000000	81.540369  
1150.000000	82.669663  
1149.000000	83.654022  
1148.000000	84.479308  
1147.000000	85.150671  
1146.000000	85.667657  
1145.000000	86.037492  
1144.000000	86.284089  
1143.000000	86.452198  
1142.000000	86.577343  
1141.000000	86.700963  
1140.000000	86.861896  
1139.000000	87.101531  
1138.000000	87.434363  
1137.000000	87.874770  
1136.000000	88.425350  
1135.000000	89.080905  
1134.000000	89.808797  
1133.000000	90.579509  
1132.000000	91.366648  
1131.000000	92.143583  
1130.000000	92.876362  
1129.000000	93.543815  
1128.000000	94.137382  
1127.000000	94.645643  
1126.000000	95.054364  
1125.000000	95.364928  
1124.000000	95.595812  
1123.000000	95.761823  
1122.000000	95.879793  
1121.000000	95.976161  
1120.000000	96.079945  
1119.000000	96.190857  
1118.000000	96.293210  
1117.000000	96.369862  
1116.000000	96.406507  
1115.000000	96.375012  
1114.000000	96.254515  
1113.000000	96.045589  
1112.000000	95.761680  
1111.000000	95.410370  
1110.000000	95.003795  
1109.000000	94.571375  
1108.000000	94.152307  
1107.000000	93.783402  
1106.000000	93.500781  
1105.000000	93.340229  
1104.000000	93.325948  
1103.000000	93.458724  
1102.000000	93.717527  
1101.000000	94.066190  
1100.000000	94.461202  
1099.000000	94.855999  
1098.000000	95.210480  
1097.000000	95.500922  
1096.000000	95.729160  
1095.000000	95.910334  
1094.000000	96.060538  
1093.000000	96.191978  
1092.000000	96.322250  
1091.000000	96.468925  
1090.000000	96.640348  
1089.000000	96.844267  
1088.000000	97.087955  
1087.000000	97.376513  
1086.000000	97.693037  
1085.000000	98.029088  
1084.000000	98.380875  
1083.000000	98.743391  
1082.000000	99.086141  
1081.000000	99.377679  
1080.000000	99.595808  
1079.000000	99.716854  
1078.000000	99.711275  
1077.000000	99.561190  
1076.000000	99.266123  
1075.000000	98.820471  
1074.000000	98.219728  
1073.000000	97.493124  
1072.000000	96.719980  
1071.000000	96.004319  
1070.000000	95.451903  
1069.000000	95.151066  
1068.000000	95.139789  
1067.000000	95.378184  
1066.000000	95.777344  
1065.000000	96.255612  
1064.000000	96.761751  
1063.000000	97.264528  
1062.000000	97.750520  
1061.000000	98.228549  
1060.000000	98.706173  
1059.000000	99.178886  
1058.000000	99.638891  
1057.000000	100.094437 
1056.000000	100.545668 
1055.000000	100.975894 
1054.000000	101.361656 
1053.000000	101.693105 
1052.000000	101.960659 
1051.000000	102.147793 
1050.000000	102.245664 
1049.000000	102.262878 
1048.000000	102.219343 
1047.000000	102.130770 
1046.000000	102.008318 
1045.000000	101.862335 
1044.000000	101.702880 
1043.000000	101.540017 
1042.000000	101.380133 
1041.000000	101.228976 
1040.000000	101.087713 
1039.000000	100.955748 
1038.000000	100.822806 
1037.000000	100.678801 
1036.000000	100.513839 
1035.000000	100.319957 
1034.000000	100.084495 
1033.000000	99.797439  
1032.000000	99.456501  
1031.000000	99.058866  
1030.000000	98.602128  
1029.000000	98.093414  
1028.000000	97.557258  
1027.000000	97.011470  
1026.000000	96.466040  
1025.000000	95.938253  
1024.000000	95.464086  
1023.000000	95.069146  
1022.000000	94.760632  
1021.000000	94.542098  
1020.000000	94.420266  
1019.000000	94.384694  
1018.000000	94.411015  
1017.000000	94.486761  
1016.000000	94.614553  
1015.000000	94.791054  
1014.000000	95.004630  
1013.000000	95.255923  
1012.000000	95.550179  
1011.000000	95.880103  
1010.000000	96.226930  
1009.000000	96.583175  
1008.000000	96.941876  
1007.000000	97.286844  
1006.000000	97.597002  
1005.000000	97.867441  
1004.000000	98.099040  
1003.000000	98.288774  
1002.000000	98.432636  
1001.000000	98.537230  
1000.000000	98.612713  
999.000000	 98.666620  
998.000000	 98.705959  
997.000000	 98.740935  
996.000000	 98.778533  
995.000000	 98.819565  
994.000000	 98.863792  
993.000000	 98.914933  
992.000000	 98.979282  
991.000000	 99.061822  
990.000000	 99.165725  
989.000000	 99.294567  
988.000000	 99.454593  
987.000000	 99.649953  
986.000000	 99.879288  
985.000000	 100.139045 
984.000000	 100.429058 
983.000000	 100.743365 
982.000000	 101.063513 
981.000000	 101.367568 
980.000000	 101.646471 
979.000000	 101.896524 
978.000000	 102.111530 
977.000000	 102.287602 
976.000000	 102.434515 
975.000000	 102.565407 
974.000000	 102.689242 
973.000000	 102.818346 
972.000000	 102.969527 
971.000000	 103.148436 
970.000000	 103.344440 
969.000000	 103.553032 
968.000000	 103.778576 
967.000000	 104.016399 
966.000000	 104.247212 
965.000000	 104.461050 
964.000000	 104.659533 
963.000000	 104.836440 
962.000000	 104.978036 
961.000000	 105.084824 
960.000000	 105.170083 
959.000000	 105.235528 
958.000000	 105.274462 
957.000000	 105.288624 
956.000000	 105.285501 
955.000000	 105.258131 
954.000000	 105.198407 
953.000000	 105.110621 
952.000000	 105.004334 
951.000000	 104.873156 
950.000000	 104.710125 
949.000000	 104.520487 
948.000000	 104.315900 
947.000000	 104.097318 
946.000000	 103.865289 
945.000000	 103.628087 
944.000000	 103.397059 
943.000000	 103.176879 
942.000000	 102.972435 
941.000000	 102.791786 
940.000000	 102.641868 
939.000000	 102.522206 
938.000000	 102.428889 
937.000000	 102.357387 
936.000000	 102.302885 
935.000000	 102.257275 
934.000000	 102.210211 
933.000000	 102.152514 
932.000000	 102.081084 
931.000000	 101.994323 
930.000000	 101.888966 
929.000000	 101.761674 
928.000000	 101.616811 
927.000000	 101.457977 
926.000000	 101.286435 
925.000000	 101.104307 
924.000000	 100.923824 
923.000000	 100.749850 
922.000000	 100.576210 
921.000000	 100.397133 
920.000000	 100.224351 
919.000000	 100.070810 
918.000000	 99.941682  
917.000000	 99.843549  
916.000000	 99.792695  
915.000000	 99.796748  
914.000000	 99.850106  
913.000000	 99.948549  
912.000000	 100.093054 
911.000000	 100.272035 
910.000000	 100.464200 
909.000000	 100.661277 
908.000000	 100.866055 
907.000000	 101.069569 
906.000000	 101.253747 
905.000000	 101.415991 
904.000000	 101.566839 
903.000000	 101.706218 
902.000000	 101.825046 
901.000000	 101.923441 
900.000000	 102.009272 
899.000000	 102.080941 
898.000000	 102.134561 
897.000000	 102.174115 
896.000000	 102.206993 
895.000000	 102.229595 
894.000000	 102.234387 
893.000000	 102.217388 
892.000000	 102.175641 
891.000000	 102.102804 
890.000000	 101.997160 
889.000000	 101.865124 
888.000000	 101.714491 
887.000000	 101.550149 
886.000000	 101.381397 
885.000000	 101.227736 
884.000000	 101.114797 
883.000000	 101.062345 
882.000000	 101.078629 
881.000000	 101.160359 
880.000000	 101.298713 
879.000000	 101.475310 
878.000000	 101.661658 
877.000000	 101.824879 
876.000000	 101.942825 
875.000000	 101.997709 
874.000000	 101.971673 
873.000000	 101.847696 
872.000000	 101.627182 
871.000000	 101.323437 
870.000000	 100.963258 
869.000000	 100.592565 
868.000000	 100.280475 
867.000000	 100.090241 
866.000000	 100.054740 
865.000000	 100.179839 
864.000000	 100.448632 
863.000000	 100.814676 
862.000000	 101.207447 
861.000000	 101.571440 
860.000000	 101.884341 
859.000000	 102.141046 
858.000000	 102.338171 
857.000000	 102.483654 
856.000000	 102.596259 
855.000000	 102.688980 
854.000000	 102.768492 
853.000000	 102.849054 
852.000000	 102.943730 
851.000000	 103.042912 
850.000000	 103.124880 
849.000000	 103.182291 
848.000000	 103.221392 
847.000000	 103.240156 
846.000000	 103.235030 
845.000000	 103.220224 
844.000000	 103.225183 
843.000000	 103.271555 
842.000000	 103.366804 
841.000000	 103.508663 
840.000000	 103.684139 
839.000000	 103.870916 
838.000000	 104.049038 
837.000000	 104.212927 
836.000000	 104.368734 
835.000000	 104.526233 
834.000000	 104.692149 
833.000000	 104.870223 
832.000000	 105.061244 
831.000000	 105.262398 
830.000000	 105.466961 
829.000000	 105.669951 
828.000000	 105.872607 
827.000000	 106.076622 
826.000000	 106.273078 
825.000000	 106.450152 
824.000000	 106.607747 
823.000000	 106.753635 
822.000000	 106.886029 
821.000000	 106.997942 
820.000000	 107.089519 
819.000000	 107.166528 
818.000000	 107.224822 
817.000000	 107.260489 
816.000000	 107.276177 
815.000000	 107.277584 
814.000000	 107.258129 
813.000000	 107.219791 
812.000000	 107.173848 
811.000000	 107.131695 
810.000000	 107.083845 
809.000000	 107.023167 
808.000000	 106.950068 
807.000000	 106.865429 
806.000000	 106.759047 
805.000000	 106.626963 
804.000000	 106.474256 
803.000000	 106.298875 
802.000000	 106.086468 
801.000000	 105.825757 
800.000000	 105.514168 
799.000000	 105.149483 
798.000000	 104.735779 
797.000000	 104.299879 
796.000000	 103.888058 
795.000000	 103.545546 
794.000000	 103.308010 
793.000000	 103.203058 
792.000000	 103.241276 
791.000000	 103.403902 
790.000000	 103.650856 
789.000000	 103.939771 
788.000000	 104.235744 
787.000000	 104.512190 
786.000000	 104.751896 
785.000000	 104.949426 
784.000000	 105.104899 
783.000000	 105.221295 
782.000000	 105.301833 
781.000000	 105.352997 
780.000000	 105.381107 
779.000000	 105.390048 
778.000000	 105.376982 
777.000000	 105.337929 
776.000000	 105.274176 
775.000000	 105.189204 
774.000000	 105.080294 
773.000000	 104.942536 
772.000000	 104.779958 
771.000000	 104.600167 
770.000000	 104.398488 
769.000000	 104.166173 
768.000000	 103.905415 
767.000000	 103.628516 
766.000000	 103.334569 
765.000000	 103.020024 
764.000000	 102.687215 
763.000000	 102.345776 
762.000000	 101.989889 
761.000000	 101.616668 
760.000000	 101.227951 
759.000000	 100.828051 
758.000000	 100.403046 
757.000000	 99.947357  
756.000000	 99.465036  
755.000000	 98.961091  
754.000000	 98.421549  
753.000000	 97.837591  
752.000000	 97.211790  
751.000000	 96.550893  
750.000000	 95.853233  
749.000000	 95.123887  
748.000000	 94.373011  
747.000000	 93.603992  
746.000000	 92.811083  
745.000000	 91.995525  
744.000000	 91.167640  
743.000000	 90.333247  
742.000000	 89.489436  
741.000000	 88.633918  
740.000000	 87.768030  
739.000000	 86.892390  
738.000000	 86.004590  
737.000000	 85.107517  
736.000000	 84.202599  
735.000000	 83.294391  
734.000000	 82.385659  
733.000000	 81.488466  
732.000000	 80.603599  
731.000000	 79.730916  
730.000000	 78.870892  
729.000000	 78.046011  
728.000000	 77.277016  
727.000000	 76.588392  
726.000000	 76.005554  
725.000000	 75.562524  
724.000000	 75.269150  
723.000000	 75.110363  
722.000000	 75.058960  
721.000000	 75.091147  
720.000000	 75.175666  
719.000000	 75.280857  
718.000000	 75.393891  
717.000000	 75.517845  
716.000000	 75.653529  
715.000000	 75.797271  
714.000000	 75.960803  
713.000000	 76.156306  
712.000000	 76.382207  
711.000000	 76.622128  
710.000000	 76.875543  
709.000000	 77.147388  
708.000000	 77.438926  
707.000000	 77.737712  
706.000000	 78.037977  
705.000000	 78.339910  
704.000000	 78.649854  
703.000000	 78.968477  
702.000000	 79.295754  
701.000000	 79.631519  
700.000000	 79.980874  
699.000000	 80.343699  
698.000000	 80.718636  
697.000000	 81.108927  
696.000000	 81.520342  
695.000000	 81.943011  
694.000000	 82.359743  
693.000000	 82.771134  
692.000000	 83.191871  
691.000000	 83.622837  
690.000000	 84.056615  
689.000000	 84.505367  
688.000000	 84.986972  
687.000000	 85.489130  
686.000000	 85.984802  
685.000000	 86.475610  
684.000000	 86.981511  
683.000000	 87.503767  
682.000000	 88.032054  
681.000000	 88.579297  
680.000000	 89.155220  
679.000000	 89.734172  
678.000000	 90.298914  
677.000000	 90.874648  
676.000000	 91.470265  
675.000000	 92.051339  
674.000000	 92.616105  
673.000000	 93.188023  
672.000000	 93.703031  
671.000000	 94.079327  
670.000000	 94.440054  
669.000000	 95.023441  
668.000000	 95.816779  
667.000000	 96.527075  
666.000000	 96.978759  
665.000000	 97.296333  
664.000000	 97.647690  
663.000000	 98.039817  
662.000000	 98.418641  
661.000000	 98.782658  
660.000000	 99.139928  
659.000000	 99.475574  
658.000000	 99.783635  
657.000000	 100.076365 
656.000000	 100.354337 
655.000000	 100.614333 
654.000000	 100.859832 
653.000000	 101.096200 
652.000000	 101.318836 
651.000000	 101.529288 
650.000000	 101.732635 
649.000000	 101.937699 
648.000000	 102.143859 
647.000000	 102.345204 
646.000000	 102.535748 
645.000000	 102.718353 
644.000000	 102.894520 
643.000000	 103.059101 
642.000000	 103.203964 
641.000000	 103.335070 
640.000000	 103.465342 
639.000000	 103.594851 
638.000000	 103.711366 
637.000000	 103.813052 
636.000000	 103.908872 
635.000000	 103.996753 
634.000000	 104.063510 
633.000000	 104.105472 
632.000000	 104.130721 
631.000000	 104.140639 
630.000000	 104.136037 
629.000000	 104.125571 
628.000000	 104.114341 
627.000000	 104.085946 
626.000000	 104.026603 
625.000000	 103.945064 
624.000000	 103.859114 
623.000000	 103.768515 
622.000000	 103.667354 
621.000000	 103.557634 
620.000000	 103.440761 
619.000000	 103.309369 
618.000000	 103.165626 
617.000000	 103.027057 
616.000000	 102.903652 
615.000000	 102.787518 
614.000000	 102.673649 
613.000000	 102.570199 
612.000000	 102.483057 
611.000000	 102.409148 
610.000000	 102.348875 
609.000000	 102.307319 
608.000000	 102.282404 
607.000000	 102.266573 
606.000000	 102.260780 
605.000000	 102.270030 
604.000000	 102.289915 
603.000000	 102.310252 
602.000000	 102.330422 
601.000000	 102.355885 
600.000000	 102.387046 
599.000000	 102.417182 
598.000000	 102.443838 
597.000000	 102.469682 
596.000000	 102.498960 
595.000000	 102.531695 
594.000000	 102.565741 
593.000000	 102.596092 
592.000000	 102.618694 
591.000000	 102.630949 
590.000000	 102.635478 
589.000000	 102.638339 
588.000000	 102.646827 
587.000000	 102.663350 
586.000000	 102.687406 
585.000000	 102.720212 
584.000000	 102.766704 
583.000000	 102.830529 
582.000000	 102.912330 
581.000000	 103.011798 
580.000000	 103.127455 
579.000000	 103.253674 
578.000000	 103.384017 
577.000000	 103.517484 
576.000000	 103.654313 
575.000000	 103.791952 
574.000000	 103.929233 
573.000000	 104.071545 
572.000000	 104.218935 
571.000000	 104.361534 
570.000000	 104.493308 
569.000000	 104.623126 
568.000000	 104.757046 
567.000000	 104.886198 
566.000000	 105.002427 
565.000000	 105.113339 
564.000000	 105.227589 
563.000000	 105.341458 
562.000000	 105.450034 
561.000000	 105.556130 
560.000000	 105.660533 
559.000000	 105.760025 
558.000000	 105.859947 
557.000000	 105.970430 
556.000000	 106.088876 
555.000000	 106.203484 
554.000000	 106.313848 
553.000000	 106.427335 
552.000000	 106.538105 
551.000000	 106.634092 
550.000000	 106.719088 
549.000000	 106.805586 
548.000000	 106.890916 
547.000000	 106.966924 
546.000000	 107.039976 
545.000000	 107.118439 
544.000000	 107.193112 
543.000000	 107.256841 
542.000000	 107.320261 
541.000000	 107.388925 
540.000000	 107.446312 
539.000000	 107.486510 
538.000000	 107.529020 
537.000000	 107.583785 
536.000000	 107.631683 
535.000000	 107.663226 
534.000000	 107.694292 
533.000000	 107.731986 
532.000000	 107.761359 
531.000000	 107.778096 
530.000000	 107.796382 
529.000000	 107.818579 
528.000000	 107.828283 
527.000000	 107.820653 
526.000000	 107.817292 
525.000000	 107.839632 
524.000000	 107.875680 
523.000000	 107.887744 
522.000000	 107.865524 
521.000000	 107.847237 
520.000000	 107.860922 
519.000000	 107.876420 
518.000000	 107.860207 
517.000000	 107.836437 
516.000000	 107.840418 
515.000000	 107.855391 
514.000000	 107.853102 
513.000000	 107.846832 
512.000000	 107.849931 
511.000000	 107.834935 
510.000000	 107.783269 
509.000000	 107.726263 
508.000000	 107.698082 
507.000000	 107.692503 
506.000000	 107.692837 
505.000000	 107.698965 
504.000000	 107.708716 
503.000000	 107.711815 
502.000000	 107.713890 
501.000000	 107.730817 
500.000000	 107.757353 
499.000000	 107.771778 
498.000000	 107.770347 
497.000000	 107.764863 
496.000000	 107.754254 
495.000000	 107.730698 
494.000000	 107.705307 
493.000000	 107.695174 
492.000000	 107.696485 
491.000000	 107.696127 
490.000000	 107.694983 
489.000000	 107.696461 
488.000000	 107.689166 
487.000000	 107.665896 
486.000000	 107.642269 
485.000000	 107.638382 
484.000000	 107.653045 
483.000000	 107.672381 
482.000000	 107.689809 
481.000000	 107.706260 
480.000000	 107.720184 
479.000000	 107.726597 
478.000000	 107.722330 
477.000000	 107.709693 
476.000000	 107.695579 
475.000000	 107.684421 
474.000000	 107.670307 
473.000000	 107.639050 
472.000000	 107.584714 
471.000000	 107.523536 
470.000000	 107.487845 
469.000000	 107.499837 
468.000000	 107.547473 
467.000000	 107.588624 
466.000000	 107.587432 
465.000000	 107.542967 
464.000000	 107.482218 
463.000000	 107.431530 
462.000000	 107.401180 
461.000000	 107.388877 
460.000000	 107.386779 
459.000000	 107.384467 
458.000000	 107.374072 
457.000000	 107.352519 
456.000000	 107.317256 
455.000000	 107.260751 
454.000000	 107.179045 
453.000000	 107.080221 
452.000000	 106.983661 
451.000000	 106.912612 
450.000000	 106.883645 
449.000000	 106.881761 
448.000000	 106.858229 
447.000000	 106.784963 
446.000000	 106.700897 
445.000000	 106.656718 
444.000000	 106.629490 
443.000000	 106.550264 
442.000000	 106.405830 
441.000000	 106.243252 
440.000000	 106.091618 
439.000000	 105.947971 
438.000000	 105.827784 
437.000000	 105.756783 
436.000000	 105.734252 
435.000000	 105.750203 
434.000000	 105.809426 
433.000000	 105.893564 
432.000000	 105.953145 
431.000000	 105.984258 
430.000000	 106.049203 
429.000000	 106.164574 
428.000000	 106.265234 
427.000000	 106.325101 
426.000000	 106.407570 
425.000000	 106.544828 
424.000000	 106.696224 
423.000000	 106.850743 
422.000000	 107.016539 
421.000000	 107.107663 
420.000000	 107.036232 
419.000000	 106.908559 
418.000000	 106.927394 
417.000000	 107.099342 
416.000000	 107.240295 
415.000000	 107.253432 
414.000000	 107.216620 
413.000000	 107.204842 
412.000000	 107.190799 
411.000000	 107.127356 
410.000000	 107.033705 
409.000000	 106.973767 
408.000000	 106.987786 
407.000000	 107.051515 
406.000000	 107.115316 
405.000000	 107.146525 
404.000000	 107.106232 
403.000000	 106.958889 
402.000000	 106.768155 
401.000000	 106.668329 
400.000000	 106.660914 

