PE IR       SPECTRUM    SPECTRUM    ASCII       PEDS        1.60        
  -1
UVLEN2.ASC
14/01/17
13:17:51.00
14/01/17
13:17:51.00
Admin

400.000000
8









2002,4.07    
MIRTGS : RIGHTBACK : INTERNAL 2
MIR : ON : INTERNAL 2
OPTKBR

0.200000
1
4.000000
STRONG
RATIO
SPECTRUM
UNLOCKED 256

DOUBLE
8
FORWARD
1
0
0


1.000000
RATIO


1
0
TRUE
41620
0
LEFT NOT FITTED RIGHT NOT FITTED 0
NONE
NONE
15600
21.200000
8.970000
41618
TRUE
1 0 8 72 0 0 0 0 

15798.013000






#HDR
-1
-1
#GR
CM-1
%T
0.00002384185791015625
0.0
4000.000000
-1.000000
3601
8
104.673290
71.991991
#DATA
4000.000000	104.673290 
3999.000000	104.666042 
3998.000000	104.662847 
3997.000000	104.662275 
3996.000000	104.661011 
3995.000000	104.659891 
3994.000000	104.661226 
3993.000000	104.662895 
3992.000000	104.661059 
3991.000000	104.655337 
3990.000000	104.647469 
3989.000000	104.638242 
3988.000000	104.629445 
3987.000000	104.624748 
3986.000000	104.624867 
3985.000000	104.625391 
3984.000000	104.621386 
3983.000000	104.611706 
3982.000000	104.597759 
3981.000000	104.582619 
3980.000000	104.571628 
3979.000000	104.568982 
3978.000000	104.572439 
3977.000000	104.574680 
3976.000000	104.571080 
3975.000000	104.562282 
3974.000000	104.551029 
3973.000000	104.539608 
3972.000000	104.530215 
3971.000000	104.523658 
3970.000000	104.517698 
3969.000000	104.509925 
3968.000000	104.501557 
3967.000000	104.495692 
3966.000000	104.493331 
3965.000000	104.492473 
3964.000000	104.489970 
3963.000000	104.483222 
3962.000000	104.471588 
3961.000000	104.458522 
3960.000000	104.448938 
3959.000000	104.443240 
3958.000000	104.437446 
3957.000000	104.429841 
3956.000000	104.422926 
3955.000000	104.419088 
3954.000000	104.417705 
3953.000000	104.418516 
3952.000000	104.421782 
3951.000000	104.423856 
3950.000000	104.417347 
3949.000000	104.399108 
3948.000000	104.376173 
3947.000000	104.361534 
3946.000000	104.362559 
3945.000000	104.373455 
3944.000000	104.378747 
3943.000000	104.367733 
3942.000000	104.345273 
3941.000000	104.327178 
3940.000000	104.322743 
3939.000000	104.326415 
3938.000000	104.328560 
3937.000000	104.328465 
3936.000000	104.333257 
3935.000000	104.344701 
3934.000000	104.353046 
3933.000000	104.346108 
3932.000000	104.323887 
3931.000000	104.298806 
3930.000000	104.281902 
3929.000000	104.275250 
3928.000000	104.278087 
3927.000000	104.288768 
3926.000000	104.298305 
3925.000000	104.295444 
3924.000000	104.281735 
3923.000000	104.269957 
3922.000000	104.265689 
3921.000000	104.262542 
3920.000000	104.254865 
3919.000000	104.243254 
3918.000000	104.228496 
3917.000000	104.211258 
3916.000000	104.197335 
3915.000000	104.193162 
3914.000000	104.198527 
3913.000000	104.207611 
3912.000000	104.216074 
3911.000000	104.222917 
3910.000000	104.228711 
3909.000000	104.234981 
3908.000000	104.242992 
3907.000000	104.249215 
3906.000000	104.245686 
3905.000000	104.226779 
3904.000000	104.196882 
3903.000000	104.169273 
3902.000000	104.154181 
3901.000000	104.147386 
3900.000000	104.137945 
3899.000000	104.125118 
3898.000000	104.119277 
3897.000000	104.126811 
3896.000000	104.143953 
3895.000000	104.165124 
3894.000000	104.184436 
3893.000000	104.190683 
3892.000000	104.173851 
3891.000000	104.140973 
3890.000000	104.115152 
3889.000000	104.114294 
3888.000000	104.134631 
3887.000000	104.155921 
3886.000000	104.159259 
3885.000000	104.142999 
3884.000000	104.122877 
3883.000000	104.113578 
3882.000000	104.110884 
3881.000000	104.098558 
3880.000000	104.072403 
3879.000000	104.050230 
3878.000000	104.053211 
3877.000000	104.079198 
3876.000000	104.103136 
3875.000000	104.104471 
3874.000000	104.089474 
3873.000000	104.078769 
3872.000000	104.076910 
3871.000000	104.068541 
3870.000000	104.045414 
3869.000000	104.023694 
3868.000000	104.027342 
3867.000000	104.057335 
3866.000000	104.087162 
3865.000000	104.089999 
3864.000000	104.065799 
3863.000000	104.036021 
3862.000000	104.018092 
3861.000000	104.015064 
3860.000000	104.025363 
3859.000000	104.045939 
3858.000000	104.067826 
3857.000000	104.081153 
3856.000000	104.080557 
3855.000000	104.058837 
3854.000000	104.011631 
3853.000000	103.956937 
3852.000000	103.929352 
3851.000000	103.941416 
3850.000000	103.969836 
3849.000000	103.990578 
3848.000000	104.006409 
3847.000000	104.029798 
3846.000000	104.056787 
3845.000000	104.071927 
3844.000000	104.068922 
3843.000000	104.056787 
3842.000000	104.047560 
3841.000000	104.043269 
3840.000000	104.038262 
3839.000000	104.030919 
3838.000000	104.024767 
3837.000000	104.021167 
3836.000000	104.017591 
3835.000000	104.013061 
3834.000000	104.008698 
3833.000000	104.002308 
3832.000000	103.992271 
3831.000000	103.983545 
3830.000000	103.984355 
3829.000000	103.995060 
3828.000000	104.007029 
3827.000000	104.011821 
3826.000000	104.009842 
3825.000000	104.010295 
3824.000000	104.022502 
3823.000000	104.042649 
3822.000000	104.050612 
3821.000000	104.032969 
3820.000000	104.007005 
3819.000000	104.002618 
3818.000000	104.020237 
3817.000000	104.029512 
3816.000000	104.012131 
3815.000000	103.984522 
3814.000000	103.970956 
3813.000000	103.975057 
3812.000000	103.984975 
3811.000000	103.994703 
3810.000000	104.008483 
3809.000000	104.026961 
3808.000000	104.039072 
3807.000000	104.033517 
3806.000000	104.015946 
3805.000000	104.007005 
3804.000000	104.018068 
3803.000000	104.032492 
3802.000000	104.023241 
3801.000000	103.990101 
3800.000000	103.964018 
3799.000000	103.967857 
3798.000000	103.988456 
3797.000000	104.000115 
3796.000000	103.998208 
3795.000000	103.994989 
3794.000000	103.997635 
3793.000000	104.004478 
3792.000000	104.012489 
3791.000000	104.018616 
3790.000000	104.020810 
3789.000000	104.020929 
3788.000000	104.023551 
3787.000000	104.029321 
3786.000000	104.033637 
3785.000000	104.032158 
3784.000000	104.027509 
3783.000000	104.028487 
3782.000000	104.040765 
3781.000000	104.058480 
3780.000000	104.068493 
3779.000000	104.063153 
3778.000000	104.048132 
3777.000000	104.036283 
3776.000000	104.033613 
3775.000000	104.036021 
3774.000000	104.038929 
3773.000000	104.044151 
3772.000000	104.052972 
3771.000000	104.059648 
3770.000000	104.057240 
3769.000000	104.047942 
3768.000000	104.042267 
3767.000000	104.046964 
3766.000000	104.056215 
3765.000000	104.060959 
3764.000000	104.062867 
3763.000000	104.070949 
3762.000000	104.085826 
3761.000000	104.096460 
3760.000000	104.094791 
3759.000000	104.084730 
3758.000000	104.074549 
3757.000000	104.068684 
3756.000000	104.069161 
3755.000000	104.080033 
3754.000000	104.102826 
3753.000000	104.126381 
3752.000000	104.129981 
3751.000000	104.105329 
3750.000000	104.070854 
3749.000000	104.055142 
3748.000000	104.066872 
3747.000000	104.089546 
3746.000000	104.102373 
3745.000000	104.099798 
3744.000000	104.091477 
3743.000000	104.091858 
3742.000000	104.106330 
3741.000000	104.125499 
3740.000000	104.139018 
3739.000000	104.151177 
3738.000000	104.169225 
3737.000000	104.179763 
3736.000000	104.160571 
3735.000000	104.116296 
3734.000000	104.076981 
3733.000000	104.059314 
3732.000000	104.052639 
3731.000000	104.045176 
3730.000000	104.042100 
3729.000000	104.051232 
3728.000000	104.067063 
3727.000000	104.077100 
3726.000000	104.076623 
3725.000000	104.072690 
3724.000000	104.074907 
3723.000000	104.084825 
3722.000000	104.096055 
3721.000000	104.103446 
3720.000000	104.108762 
3719.000000	104.115962 
3718.000000	104.124426 
3717.000000	104.132080 
3716.000000	104.142498 
3715.000000	104.161334 
3714.000000	104.183292 
3713.000000	104.191732 
3712.000000	104.176759 
3711.000000	104.147768 
3710.000000	104.122805 
3709.000000	104.110789 
3708.000000	104.108881 
3707.000000	104.110765 
3706.000000	104.113602 
3705.000000	104.120016 
3704.000000	104.133105 
3703.000000	104.148936 
3702.000000	104.156613 
3701.000000	104.150986 
3700.000000	104.141545 
3699.000000	104.140377 
3698.000000	104.146337 
3697.000000	104.150462 
3696.000000	104.150509 
3695.000000	104.152345 
3694.000000	104.161262 
3693.000000	104.181051 
3692.000000	104.212546 
3691.000000	104.243803 
3690.000000	104.252934 
3689.000000	104.230117 
3688.000000	104.189395 
3687.000000	104.154443 
3686.000000	104.136490 
3685.000000	104.130482 
3684.000000	104.128527 
3683.000000	104.131078 
3682.000000	104.139661 
3681.000000	104.147410 
3680.000000	104.148268 
3679.000000	104.151177 
3678.000000	104.166555 
3677.000000	104.182362 
3676.000000	104.173326 
3675.000000	104.137182 
3674.000000	104.104399 
3673.000000	104.104804 
3672.000000	104.131507 
3671.000000	104.147839 
3670.000000	104.129362 
3669.000000	104.089736 
3668.000000	104.060673 
3667.000000	104.055261 
3666.000000	104.062438 
3665.000000	104.069089 
3664.000000	104.073262 
3663.000000	104.077935 
3662.000000	104.083585 
3661.000000	104.088711 
3660.000000	104.093980 
3659.000000	104.100370 
3658.000000	104.102730 
3657.000000	104.091477 
3656.000000	104.065942 
3655.000000	104.040050 
3654.000000	104.030942 
3653.000000	104.047966 
3652.000000	104.089093 
3651.000000	104.133462 
3650.000000	104.143261 
3649.000000	104.098534 
3648.000000	104.026412 
3647.000000	103.973865 
3646.000000	103.956556 
3645.000000	103.957033 
3644.000000	103.961277 
3643.000000	103.969836 
3642.000000	103.979587 
3641.000000	103.983473 
3640.000000	103.983497 
3639.000000	103.984189 
3638.000000	103.982806 
3637.000000	103.977560 
3636.000000	103.973007 
3635.000000	103.966999 
3634.000000	103.951787 
3633.000000	103.935790 
3632.000000	103.939175 
3631.000000	103.958225 
3630.000000	103.960847 
3629.000000	103.927826 
3628.000000	103.879284 
3627.000000	103.847980 
3626.000000	103.844046 
3625.000000	103.854656 
3624.000000	103.867411 
3623.000000	103.882241 
3622.000000	103.902053 
3621.000000	103.919124 
3620.000000	103.918218 
3619.000000	103.896236 
3618.000000	103.869009 
3617.000000	103.856325 
3616.000000	103.862214 
3615.000000	103.872942 
3614.000000	103.870439 
3613.000000	103.848719 
3612.000000	103.820943 
3611.000000	103.804755 
3610.000000	103.798723 
3609.000000	103.784465 
3608.000000	103.755593 
3607.000000	103.729605 
3606.000000	103.723549 
3605.000000	103.732252 
3604.000000	103.740835 
3603.000000	103.743100 
3602.000000	103.739953 
3601.000000	103.731346 
3600.000000	103.719472 
3599.000000	103.708529 
3598.000000	103.698730 
3597.000000	103.686141 
3596.000000	103.669238 
3595.000000	103.650188 
3594.000000	103.630757 
3593.000000	103.612852 
3592.000000	103.601384 
3591.000000	103.603243 
3590.000000	103.617715 
3589.000000	103.628683 
3588.000000	103.613853 
3587.000000	103.569102 
3586.000000	103.517007 
3585.000000	103.482985 
3584.000000	103.470158 
3583.000000	103.464031 
3582.000000	103.454065 
3581.000000	103.439807 
3580.000000	103.422999 
3579.000000	103.404521 
3578.000000	103.385186 
3577.000000	103.365206 
3576.000000	103.343844 
3575.000000	103.322935 
3574.000000	103.304862 
3573.000000	103.289341 
3572.000000	103.277182 
3571.000000	103.274059 
3570.000000	103.280782 
3569.000000	103.282070 
3568.000000	103.257584 
3567.000000	103.205299 
3566.000000	103.145623 
3565.000000	103.100562 
3564.000000	103.076052 
3563.000000	103.063249 
3562.000000	103.048992 
3561.000000	103.025102 
3560.000000	102.992987 
3559.000000	102.960419 
3558.000000	102.932977 
3557.000000	102.910542 
3556.000000	102.892708 
3555.000000	102.880239 
3554.000000	102.868771 
3553.000000	102.848553 
3552.000000	102.817201 
3551.000000	102.785015 
3550.000000	102.763485 
3549.000000	102.753472 
3548.000000	102.746748 
3547.000000	102.735066 
3546.000000	102.713584 
3545.000000	102.682614 
3544.000000	102.648019 
3543.000000	102.616381 
3542.000000	102.589201 
3541.000000	102.564406 
3540.000000	102.541518 
3539.000000	102.522015 
3538.000000	102.504396 
3537.000000	102.484273 
3536.000000	102.458620 
3535.000000	102.428722 
3534.000000	102.398586 
3533.000000	102.371954 
3532.000000	102.350354 
3531.000000	102.333498 
3530.000000	102.319002 
3529.000000	102.302408 
3528.000000	102.280068 
3527.000000	102.254247 
3526.000000	102.231407 
3525.000000	102.212762 
3524.000000	102.191781 
3523.000000	102.163553 
3522.000000	102.131867 
3521.000000	102.104353 
3520.000000	102.083039 
3519.000000	102.063560 
3518.000000	102.042150 
3517.000000	102.020883 
3516.000000	102.004170 
3515.000000	101.992321 
3514.000000	101.980996 
3513.000000	101.966619 
3512.000000	101.948356 
3511.000000	101.924419 
3510.000000	101.892590 
3509.000000	101.855254 
3508.000000	101.821303 
3507.000000	101.800560 
3506.000000	101.795125 
3505.000000	101.796317 
3504.000000	101.789522 
3503.000000	101.765584 
3502.000000	101.728343 
3501.000000	101.691460 
3500.000000	101.667332 
3499.000000	101.656699 
3498.000000	101.648426 
3497.000000	101.630496 
3496.000000	101.601839 
3495.000000	101.570606 
3494.000000	101.541519 
3493.000000	101.511931 
3492.000000	101.480245 
3491.000000	101.451444 
3490.000000	101.430416 
3489.000000	101.416134 
3488.000000	101.403498 
3487.000000	101.385354 
3486.000000	101.355123 
3485.000000	101.312494 
3484.000000	101.268172 
3483.000000	101.237058 
3482.000000	101.225066 
3481.000000	101.224207 
3480.000000	101.219964 
3479.000000	101.202249 
3478.000000	101.170539 
3477.000000	101.131200 
3476.000000	101.091074 
3475.000000	101.054024 
3474.000000	101.022648 
3473.000000	100.999808 
3472.000000	100.988030 
3471.000000	100.987076 
3470.000000	100.991463 
3469.000000	100.992107 
3468.000000	100.980758 
3467.000000	100.954937 
3466.000000	100.918769 
3465.000000	100.879263 
3464.000000	100.843238 
3463.000000	100.815916 
3462.000000	100.799131 
3461.000000	100.789260 
3460.000000	100.778651 
3459.000000	100.761747 
3458.000000	100.738191 
3457.000000	100.712156 
3456.000000	100.689864 
3455.000000	100.675630 
3454.000000	100.668954 
3453.000000	100.664687 
3452.000000	100.659298 
3451.000000	100.654816 
3450.000000	100.654411 
3449.000000	100.656867 
3448.000000	100.656867 
3447.000000	100.651216 
3446.000000	100.641059 
3445.000000	100.629806 
3444.000000	100.619387 
3443.000000	100.610089 
3442.000000	100.601840 
3441.000000	100.596308 
3440.000000	100.595760 
3439.000000	100.599694 
3438.000000	100.603675 
3437.000000	100.603246 
3436.000000	100.598955 
3435.000000	100.593709 
3434.000000	100.587129 
3433.000000	100.577330 
3432.000000	100.566220 
3431.000000	100.558543 
3430.000000	100.554037 
3429.000000	100.546860 
3428.000000	100.532913 
3427.000000	100.514030 
3426.000000	100.495553 
3425.000000	100.482058 
3424.000000	100.475358 
3423.000000	100.472950 
3422.000000	100.469970 
3421.000000	100.463986 
3420.000000	100.456619 
3419.000000	100.450730 
3418.000000	100.447392 
3417.000000	100.446414 
3416.000000	100.447487 
3415.000000	100.449681 
3414.000000	100.451040 
3413.000000	100.449824 
3412.000000	100.446772 
3411.000000	100.444173 
3410.000000	100.443696 
3409.000000	100.445318 
3408.000000	100.447487 
3407.000000	100.448870 
3406.000000	100.449466 
3405.000000	100.450205 
3404.000000	100.452852 
3403.000000	100.459551 
3402.000000	100.470733 
3401.000000	100.483512 
3400.000000	100.493192 
3399.000000	100.497293 
3398.000000	100.496125 
3397.000000	100.492000 
3396.000000	100.487685 
3395.000000	100.485897 
3394.000000	100.487041 
3393.000000	100.488948 
3392.000000	100.490236 
3391.000000	100.491738 
3390.000000	100.493693 
3389.000000	100.494599 
3388.000000	100.493836 
3387.000000	100.493812 
3386.000000	100.496888 
3385.000000	100.503301 
3384.000000	100.512051 
3383.000000	100.522065 
3382.000000	100.531578 
3381.000000	100.539255 
3380.000000	100.546097 
3379.000000	100.553607 
3378.000000	100.560283 
3377.000000	100.564122 
3376.000000	100.567483 
3375.000000	100.574898 
3374.000000	100.586700 
3373.000000	100.599384 
3372.000000	100.610589 
3371.000000	100.620388 
3370.000000	100.629138 
3369.000000	100.637769 
3368.000000	100.647735 
3367.000000	100.658130 
3366.000000	100.664758 
3365.000000	100.665950 
3364.000000	100.665497 
3363.000000	100.668287 
3362.000000	100.674557 
3361.000000	100.681257 
3360.000000	100.686788 
3359.000000	100.691556 
3358.000000	100.696754 
3357.000000	100.703024 
3356.000000	100.710487 
3355.000000	100.719332 
3354.000000	100.729894 
3353.000000	100.742840 
3352.000000	100.757575 
3351.000000	100.771737 
3350.000000	100.782060 
3349.000000	100.786399 
3348.000000	100.786709 
3347.000000	100.788450 
3346.000000	100.795316 
3345.000000	100.805616 
3344.000000	100.816154 
3343.000000	100.827169 
3342.000000	100.839924 
3341.000000	100.852751 
3340.000000	100.863528 
3339.000000	100.873064 
3338.000000	100.883007 
3337.000000	100.892496 
3336.000000	100.900459 
3335.000000	100.907492 
3334.000000	100.914144 
3333.000000	100.919389 
3332.000000	100.923609 
3331.000000	100.929617 
3330.000000	100.939130 
3329.000000	100.951457 
3328.000000	100.965785 
3327.000000	100.981950 
3326.000000	100.997900 
3325.000000	101.010608 
3324.000000	101.019525 
3323.000000	101.026844 
3322.000000	101.034355 
3321.000000	101.043128 
3320.000000	101.054620 
3319.000000	101.067972 
3318.000000	101.078963 
3317.000000	101.085257 
3316.000000	101.090359 
3315.000000	101.099395 
3314.000000	101.112246 
3313.000000	101.126456 
3312.000000	101.141738 
3311.000000	101.157879 
3310.000000	101.171827 
3309.000000	101.182079 
3308.000000	101.191878 
3307.000000	101.205086 
3306.000000	101.221561 
3305.000000	101.237702 
3304.000000	101.250219 
3303.000000	101.257348 
3302.000000	101.260018 
3301.000000	101.262736 
3300.000000	101.270890 
3299.000000	101.286745 
3298.000000	101.307082 
3297.000000	101.325893 
3296.000000	101.340007 
3295.000000	101.351690 
3294.000000	101.364445 
3293.000000	101.377463 
3292.000000	101.387691 
3291.000000	101.394891 
3290.000000	101.400780 
3289.000000	101.405835 
3288.000000	101.411175 
3287.000000	101.420378 
3286.000000	101.434850 
3285.000000	101.450586 
3284.000000	101.463770 
3283.000000	101.475882 
3282.000000	101.489996 
3281.000000	101.505780 
3280.000000	101.521849 
3279.000000	101.538586 
3278.000000	101.556301 
3277.000000	101.573348 
3276.000000	101.588845 
3275.000000	101.603627 
3274.000000	101.618123 
3273.000000	101.631426 
3272.000000	101.644182 
3271.000000	101.657509 
3270.000000	101.670932 
3269.000000	101.683306 
3268.000000	101.695823 
3267.000000	101.710057 
3266.000000	101.724171 
3265.000000	101.734757 
3264.000000	101.742196 
3263.000000	101.750254 
3262.000000	101.761436 
3261.000000	101.775741 
3260.000000	101.792335 
3259.000000	101.810669 
3258.000000	101.829075 
3257.000000	101.846027 
3256.000000	101.860809 
3255.000000	101.873230 
3254.000000	101.883244 
3253.000000	101.892209 
3252.000000	101.902365 
3251.000000	101.915192 
3250.000000	101.930212 
3249.000000	101.946115 
3248.000000	101.962113 
3247.000000	101.977801 
3246.000000	101.992177 
3245.000000	102.004051 
3244.000000	102.013230 
3243.000000	102.021908 
3242.000000	102.032113 
3241.000000	102.043581 
3240.000000	102.055168 
3239.000000	102.068066 
3238.000000	102.083778 
3237.000000	102.101182 
3236.000000	102.117419 
3235.000000	102.131748 
3234.000000	102.144956 
3233.000000	102.156805 
3232.000000	102.166676 
3231.000000	102.175855 
3230.000000	102.186203 
3229.000000	102.198123 
3228.000000	102.210140 
3227.000000	102.220869 
3226.000000	102.229356 
3225.000000	102.236080 
3224.000000	102.243852 
3223.000000	102.255582 
3222.000000	102.270507 
3221.000000	102.284646 
3220.000000	102.295422 
3219.000000	102.303957 
3218.000000	102.312111 
3217.000000	102.320909 
3216.000000	102.331876 
3215.000000	102.345442 
3214.000000	102.358770 
3213.000000	102.368593 
3212.000000	102.376294 
3211.000000	102.384948 
3210.000000	102.394747 
3209.000000	102.403831 
3208.000000	102.412819 
3207.000000	102.423143 
3206.000000	102.433156 
3205.000000	102.440524 
3204.000000	102.445745 
3203.000000	102.451467 
3202.000000	102.458834 
3201.000000	102.467346 
3200.000000	102.476263 
3199.000000	102.485275 
3198.000000	102.493906 
3197.000000	102.502489 
3196.000000	102.512097 
3195.000000	102.523517 
3194.000000	102.535581 
3193.000000	102.545666 
3192.000000	102.552294 
3191.000000	102.557682 
3190.000000	102.565860 
3189.000000	102.578377 
3188.000000	102.592921 
3187.000000	102.605962 
3186.000000	102.615332 
3185.000000	102.620196 
3184.000000	102.621150 
3183.000000	102.620244 
3182.000000	102.620840 
3181.000000	102.625489 
3180.000000	102.634477 
3179.000000	102.645707 
3178.000000	102.655529 
3177.000000	102.662014 
3176.000000	102.666711 
3175.000000	102.673482 
3174.000000	102.683019 
3173.000000	102.692174 
3172.000000	102.698731 
3171.000000	102.704048 
3170.000000	102.709770 
3169.000000	102.715039 
3168.000000	102.719259 
3167.000000	102.723550 
3166.000000	102.728319 
3165.000000	102.732801 
3164.000000	102.737474 
3163.000000	102.744364 
3162.000000	102.753496 
3161.000000	102.762770 
3160.000000	102.771568 
3159.000000	102.781224 
3158.000000	102.792310 
3157.000000	102.804708 
3156.000000	102.818775 
3155.000000	102.833652 
3154.000000	102.846074 
3153.000000	102.853393 
3152.000000	102.857136 
3151.000000	102.859830 
3150.000000	102.861428 
3149.000000	102.861309 
3148.000000	102.861237 
3147.000000	102.863502 
3146.000000	102.867841 
3145.000000	102.872705 
3144.000000	102.877831 
3143.000000	102.884578 
3142.000000	102.893733 
3141.000000	102.904605 
3140.000000	102.914881 
3139.000000	102.921772 
3138.000000	102.923822 
3137.000000	102.922224 
3136.000000	102.919793 
3135.000000	102.918934 
3134.000000	102.919793 
3133.000000	102.920627 
3132.000000	102.920198 
3131.000000	102.918934 
3130.000000	102.918338 
3129.000000	102.918577 
3128.000000	102.919387 
3127.000000	102.920961 
3126.000000	102.923560 
3125.000000	102.926135 
3124.000000	102.928042 
3123.000000	102.929401 
3122.000000	102.929806 
3121.000000	102.927088 
3120.000000	102.921056 
3119.000000	102.914690 
3118.000000	102.909827 
3117.000000	102.904272 
3116.000000	102.894949 
3115.000000	102.880978 
3114.000000	102.862358 
3113.000000	102.838945 
3112.000000	102.812743 
3111.000000	102.786564 
3110.000000	102.759885 
3109.000000	102.730035 
3108.000000	102.697134 
3107.000000	102.664756 
3106.000000	102.635002 
3105.000000	102.609348 
3104.000000	102.591609 
3103.000000	102.585554 
3102.000000	102.588391 
3101.000000	102.594065 
3100.000000	102.599024 
3099.000000	102.603340 
3098.000000	102.605676 
3097.000000	102.602458 
3096.000000	102.591013 
3095.000000	102.570772 
3094.000000	102.543401 
3093.000000	102.509379 
3092.000000	102.467584 
3091.000000	102.414655 
3090.000000	102.347612 
3089.000000	102.264785 
3088.000000	102.167510 
3087.000000	102.060914 
3086.000000	101.953935 
3085.000000	101.857495 
3084.000000	101.782917 
3083.000000	101.740241 
3082.000000	101.734113 
3081.000000	101.760220 
3080.000000	101.806378 
3079.000000	101.857328 
3078.000000	101.899504 
3077.000000	101.923704 
3076.000000	101.927399 
3075.000000	101.915431 
3074.000000	101.893830 
3073.000000	101.865148 
3072.000000	101.827120 
3071.000000	101.778411 
3070.000000	101.717209 
3069.000000	101.642036 
3068.000000	101.550698 
3067.000000	101.443910 
3066.000000	101.324248 
3065.000000	101.196932 
3064.000000	101.071262 
3063.000000	100.960230 
3062.000000	100.876212 
3061.000000	100.827145 
3060.000000	100.817084 
3059.000000	100.845241 
3058.000000	100.904226 
3057.000000	100.980591 
3056.000000	101.059937 
3055.000000	101.132273 
3054.000000	101.192522 
3053.000000	101.240515 
3052.000000	101.278662 
3051.000000	101.308155 
3050.000000	101.325941 
3049.000000	101.328802 
3048.000000	101.316809 
3047.000000	101.293969 
3046.000000	101.260495 
3045.000000	101.215696 
3044.000000	101.156258 
3043.000000	101.082062 
3042.000000	100.990056 
3041.000000	100.879430 
3040.000000	100.747609 
3039.000000	100.595879 
3038.000000	100.423622 
3037.000000	100.229310 
3036.000000	100.007367 
3035.000000	99.753284  
3034.000000	99.462652  
3033.000000	99.133086  
3032.000000	98.765444  
3031.000000	98.371624  
3030.000000	97.972059  
3029.000000	97.588586  
3028.000000	97.237229  
3027.000000	96.929359  
3026.000000	96.669888  
3025.000000	96.455574  
3024.000000	96.272587  
3023.000000	96.102166  
3022.000000	95.921063  
3021.000000	95.708084  
3020.000000	95.446515  
3019.000000	95.135903  
3018.000000	94.783926  
3017.000000	94.410014  
3016.000000	94.034123  
3015.000000	93.684554  
3014.000000	93.383550  
3013.000000	93.152666  
3012.000000	93.004298  
3011.000000	92.949628  
3010.000000	92.989444  
3009.000000	93.117713  
3008.000000	93.321800  
3007.000000	93.589711  
3006.000000	93.906831  
3005.000000	94.256114  
3004.000000	94.618797  
3003.000000	94.979405  
3002.000000	95.326948  
3001.000000	95.655775  
3000.000000	95.962142  
2999.000000	96.241164  
2998.000000	96.484613  
2997.000000	96.686601  
2996.000000	96.846342  
2995.000000	96.968913  
2994.000000	97.056984  
2993.000000	97.113442  
2992.000000	97.138381  
2991.000000	97.136473  
2990.000000	97.107458  
2989.000000	97.054839  
2988.000000	96.976709  
2987.000000	96.876168  
2986.000000	96.749496  
2985.000000	96.597099  
2984.000000	96.414208  
2983.000000	96.201562  
2982.000000	95.956015  
2981.000000	95.677900  
2980.000000	95.365595  
2979.000000	95.023131  
2978.000000	94.655537  
2977.000000	94.268059  
2976.000000	93.863129  
2975.000000	93.446326  
2974.000000	93.025660  
2973.000000	92.608475  
2972.000000	92.198681  
2971.000000	91.798257  
2970.000000	91.408610  
2969.000000	91.030383  
2968.000000	90.667080  
2967.000000	90.327191  
2966.000000	90.020561  
2965.000000	89.752411  
2964.000000	89.523983  
2963.000000	89.335656  
2962.000000	89.184951  
2961.000000	89.063620  
2960.000000	88.957858  
2959.000000	88.852763  
2958.000000	88.732314  
2957.000000	88.582110  
2956.000000	88.394379  
2955.000000	88.170886  
2954.000000	87.920379  
2953.000000	87.653017  
2952.000000	87.380290  
2951.000000	87.111473  
2950.000000	86.850762  
2949.000000	86.593294  
2948.000000	86.328697  
2947.000000	86.042976  
2946.000000	85.722470  
2945.000000	85.355091  
2944.000000	84.934282  
2943.000000	84.459662  
2942.000000	83.937859  
2941.000000	83.377051  
2940.000000	82.787823  
2939.000000	82.180714  
2938.000000	81.573486  
2937.000000	80.982375  
2936.000000	80.426621  
2935.000000	79.922437  
2934.000000	79.492783  
2933.000000	79.150295  
2932.000000	78.901457  
2931.000000	78.740358  
2930.000000	78.665924  
2929.000000	78.669142  
2928.000000	78.743934  
2927.000000	78.883242  
2926.000000	79.090166  
2925.000000	79.359149  
2924.000000	79.681611  
2923.000000	80.047488  
2922.000000	80.455589  
2921.000000	80.900931  
2920.000000	81.374859  
2919.000000	81.868410  
2918.000000	82.376360  
2917.000000	82.891225  
2916.000000	83.403754  
2915.000000	83.908390  
2914.000000	84.402132  
2913.000000	84.881091  
2912.000000	85.341572  
2911.000000	85.785412  
2910.000000	86.215519  
2909.000000	86.630368  
2908.000000	87.027621  
2907.000000	87.409377  
2906.000000	87.781763  
2905.000000	88.146495  
2904.000000	88.504195  
2903.000000	88.853120  
2902.000000	89.193201  
2901.000000	89.521002  
2900.000000	89.836406  
2899.000000	90.139889  
2898.000000	90.434098  
2897.000000	90.717506  
2896.000000	90.988636  
2895.000000	91.245365  
2894.000000	91.488051  
2893.000000	91.716861  
2892.000000	91.931653  
2891.000000	92.131209  
2890.000000	92.314529  
2889.000000	92.480897  
2888.000000	92.628383  
2887.000000	92.754411  
2886.000000	92.854690  
2885.000000	92.927408  
2884.000000	92.970275  
2883.000000	92.983126  
2882.000000	92.961931  
2881.000000	92.906522  
2880.000000	92.816209  
2879.000000	92.700052  
2878.000000	92.567110  
2877.000000	92.432522  
2876.000000	92.304849  
2875.000000	92.194414  
2874.000000	92.100858  
2873.000000	92.020130  
2872.000000	91.938066  
2871.000000	91.842937  
2870.000000	91.722369  
2869.000000	91.564941  
2868.000000	91.357564  
2867.000000	91.092133  
2866.000000	90.766358  
2865.000000	90.382003  
2864.000000	89.943766  
2863.000000	89.463305  
2862.000000	88.956475  
2861.000000	88.441824  
2860.000000	87.938117  
2859.000000	87.472939  
2858.000000	87.078166  
2857.000000	86.789035  
2856.000000	86.632847  
2855.000000	86.630797  
2854.000000	86.787295  
2853.000000	87.094664  
2852.000000	87.530803  
2851.000000	88.072848  
2850.000000	88.692879  
2849.000000	89.367389  
2848.000000	90.068864  
2847.000000	90.776753  
2846.000000	91.469621  
2845.000000	92.135620  
2844.000000	92.765545  
2843.000000	93.358969  
2842.000000	93.914127  
2841.000000	94.430351  
2840.000000	94.904160  
2839.000000	95.334243  
2838.000000	95.719742  
2837.000000	96.063041  
2836.000000	96.367907  
2835.000000	96.640157  
2834.000000	96.883773  
2833.000000	97.103548  
2832.000000	97.302079  
2831.000000	97.483777  
2830.000000	97.649145  
2829.000000	97.801160  
2828.000000	97.940754  
2827.000000	98.071646  
2826.000000	98.192739  
2825.000000	98.305010  
2824.000000	98.407530  
2823.000000	98.502635  
2822.000000	98.590254  
2821.000000	98.672795  
2820.000000	98.751521  
2819.000000	98.828577  
2818.000000	98.902583  
2817.000000	98.972344  
2816.000000	99.036550  
2815.000000	99.096632  
2814.000000	99.154710  
2813.000000	99.212503  
2812.000000	99.269771  
2811.000000	99.325728  
2810.000000	99.378609  
2809.000000	99.425959  
2808.000000	99.466705  
2807.000000	99.503397  
2806.000000	99.539947  
2805.000000	99.577021  
2804.000000	99.612522  
2803.000000	99.645113  
2802.000000	99.676346  
2801.000000	99.707937  
2800.000000	99.740552  
2799.000000	99.773192  
2798.000000	99.803352  
2797.000000	99.827766  
2796.000000	99.846649  
2795.000000	99.863696  
2794.000000	99.882531  
2793.000000	99.903106  
2792.000000	99.924492  
2791.000000	99.946308  
2790.000000	99.967193  
2789.000000	99.984383  
2788.000000	99.997520  
2787.000000	100.009489 
2786.000000	100.022029 
2785.000000	100.034070 
2784.000000	100.045061 
2783.000000	100.056147 
2782.000000	100.067591 
2781.000000	100.078988 
2780.000000	100.091528 
2779.000000	100.107145 
2778.000000	100.125002 
2777.000000	100.142216 
2776.000000	100.157642 
2775.000000	100.171375 
2774.000000	100.182771 
2773.000000	100.190830 
2772.000000	100.196790 
2771.000000	100.202965 
2770.000000	100.210261 
2769.000000	100.218176 
2768.000000	100.226211 
2767.000000	100.234174 
2766.000000	100.241518 
2765.000000	100.248575 
2764.000000	100.256276 
2763.000000	100.265359 
2762.000000	100.275301 
2761.000000	100.284790 
2760.000000	100.292897 
2759.000000	100.299596 
2758.000000	100.305271 
2757.000000	100.309395 
2756.000000	100.312089 
2755.000000	100.315427 
2754.000000	100.321984 
2753.000000	100.331854 
2752.000000	100.343322 
2751.000000	100.355434 
2750.000000	100.367593 
2749.000000	100.377392 
2748.000000	100.382208 
2747.000000	100.382423 
2746.000000	100.380825 
2745.000000	100.379085 
2744.000000	100.378251 
2743.000000	100.379419 
2742.000000	100.382494 
2741.000000	100.385689 
2740.000000	100.389003 
2739.000000	100.394916 
2738.000000	100.403404 
2737.000000	100.410532 
2736.000000	100.413799 
2735.000000	100.415468 
2734.000000	100.418353 
2733.000000	100.421857 
2732.000000	100.424861 
2731.000000	100.428128 
2730.000000	100.433206 
2729.000000	100.440764 
2728.000000	100.451469 
2727.000000	100.464367 
2726.000000	100.475573 
2725.000000	100.481677 
2724.000000	100.484633 
2723.000000	100.489091 
2722.000000	100.496768 
2721.000000	100.505757 
2720.000000	100.514173 
2719.000000	100.521945 
2718.000000	100.529575 
2717.000000	100.537943 
2716.000000	100.547981 
2715.000000	100.559067 
2714.000000	100.569367 
2713.000000	100.578093 
2712.000000	100.586986 
2711.000000	100.597548 
2710.000000	100.608682 
2709.000000	100.617718 
2708.000000	100.624251 
2707.000000	100.631356 
2706.000000	100.642395 
2705.000000	100.656795 
2704.000000	100.670886 
2703.000000	100.682663 
2702.000000	100.693345 
2701.000000	100.704526 
2700.000000	100.716376 
2699.000000	100.728273 
2698.000000	100.739407 
2697.000000	100.747704 
2696.000000	100.752902 
2695.000000	100.758886 
2694.000000	100.769519 
2693.000000	100.782966 
2692.000000	100.795149 
2691.000000	100.805163 
2690.000000	100.814461 
2689.000000	100.822758 
2688.000000	100.829577 
2687.000000	100.836944 
2686.000000	100.846838 
2685.000000	100.858759 
2684.000000	100.872850 
2683.000000	100.891041 
2682.000000	100.912880 
2681.000000	100.934195 
2680.000000	100.952100 
2679.000000	100.967407 
2678.000000	100.980854 
2677.000000	100.991034 
2676.000000	100.997948 
2675.000000	101.004528 
2674.000000	101.013851 
2673.000000	101.026344 
2672.000000	101.040697 
2671.000000	101.055264 
2670.000000	101.068162 
2669.000000	101.078319 
2668.000000	101.086831 
2667.000000	101.095485 
2666.000000	101.105046 
2665.000000	101.115322 
2664.000000	101.126289 
2663.000000	101.138019 
2662.000000	101.149868 
2661.000000	101.160907 
2660.000000	101.170945 
2659.000000	101.180267 
2658.000000	101.189208 
2657.000000	101.197314 
2656.000000	101.204609 
2655.000000	101.212549 
2654.000000	101.222538 
2653.000000	101.233911 
2652.000000	101.244354 
2651.000000	101.253366 
2650.000000	101.263165 
2649.000000	101.275467 
2648.000000	101.289129 
2647.000000	101.301813 
2646.000000	101.312756 
2645.000000	101.322817 
2644.000000	101.333117 
2643.000000	101.343989 
2642.000000	101.355433 
2641.000000	101.367378 
2640.000000	101.379823 
2639.000000	101.392292 
2638.000000	101.402592 
2637.000000	101.408338 
2636.000000	101.410698 
2635.000000	101.414418 
2634.000000	101.421904 
2633.000000	101.430201 
2632.000000	101.436638 
2631.000000	101.443433 
2630.000000	101.453518 
2629.000000	101.466202 
2628.000000	101.480197 
2627.000000	101.496505 
2626.000000	101.514458 
2625.000000	101.530408 
2624.000000	101.541805 
2623.000000	101.550126 
2622.000000	101.556992 
2621.000000	101.562404 
2620.000000	101.566910 
2619.000000	101.572108 
2618.000000	101.578450 
2617.000000	101.585364 
2616.000000	101.592397 
2615.000000	101.599311 
2614.000000	101.604580 
2613.000000	101.607775 
2612.000000	101.611351 
2611.000000	101.618432 
2610.000000	101.628494 
2609.000000	101.638412 
2608.000000	101.645922 
2607.000000	101.651120 
2606.000000	101.655077 
2605.000000	101.658964 
2604.000000	101.663732 
2603.000000	101.670026 
2602.000000	101.677703 
2601.000000	101.685953 
2600.000000	101.694321 
2599.000000	101.703310 
2598.000000	101.713418 
2597.000000	101.723647 
2596.000000	101.732110 
2595.000000	101.738452 
2594.000000	101.744151 
2593.000000	101.750516 
2592.000000	101.757502 
2591.000000	101.764750 
2590.000000	101.772165 
2589.000000	101.779079 
2588.000000	101.784944 
2587.000000	101.790022 
2586.000000	101.794958 
2585.000000	101.799511 
2584.000000	101.804232 
2583.000000	101.810932 
2582.000000	101.819181 
2581.000000	101.825404 
2580.000000	101.828145 
2579.000000	101.831364 
2578.000000	101.838016 
2577.000000	101.845550 
2576.000000	101.850676 
2575.000000	101.854777 
2574.000000	101.859736 
2573.000000	101.864123 
2572.000000	101.866602 
2571.000000	101.869082 
2570.000000	101.873111 
2569.000000	101.877975 
2568.000000	101.883649 
2567.000000	101.890707 
2566.000000	101.897478 
2565.000000	101.900529 
2564.000000	101.899337 
2563.000000	101.897072 
2562.000000	101.895904 
2561.000000	101.896119 
2560.000000	101.898169 
2559.000000	101.902151 
2558.000000	101.906418 
2557.000000	101.908421 
2556.000000	101.907515 
2555.000000	101.905107 
2554.000000	101.902484 
2553.000000	101.900005 
2552.000000	101.897525 
2551.000000	101.895523 
2550.000000	101.894664 
2549.000000	101.895022 
2548.000000	101.895976 
2547.000000	101.897048 
2546.000000	101.898288 
2545.000000	101.898932 
2544.000000	101.897644 
2543.000000	101.894426 
2542.000000	101.890778 
2541.000000	101.888060 
2540.000000	101.886057 
2539.000000	101.884245 
2538.000000	101.882863 
2537.000000	101.882481 
2536.000000	101.883077 
2535.000000	101.883745 
2534.000000	101.882863 
2533.000000	101.879262 
2532.000000	101.873707 
2531.000000	101.869058 
2530.000000	101.866292 
2529.000000	101.863384 
2528.000000	101.859474 
2527.000000	101.857566 
2526.000000	101.858615 
2525.000000	101.858043 
2524.000000	101.852440 
2523.000000	101.845049 
2522.000000	101.840043 
2521.000000	101.836299 
2520.000000	101.831459 
2519.000000	101.826548 
2518.000000	101.822137 
2517.000000	101.816272 
2516.000000	101.808762 
2515.000000	101.802587 
2514.000000	101.798987 
2513.000000	101.795172 
2512.000000	101.788830 
2511.000000	101.781058 
2510.000000	101.773953 
2509.000000	101.768183 
2508.000000	101.763749 
2507.000000	101.760601 
2506.000000	101.757740 
2505.000000	101.753759 
2504.000000	101.748323 
2503.000000	101.741337 
2502.000000	101.732492 
2501.000000	101.722097 
2500.000000	101.712059 
2499.000000	101.704168 
2498.000000	101.698279 
2497.000000	101.692724 
2496.000000	101.686239 
2495.000000	101.678872 
2494.000000	101.671028 
2493.000000	101.662898 
2492.000000	101.654505 
2491.000000	101.646375 
2490.000000	101.639127 
2489.000000	101.631236 
2488.000000	101.620769 
2487.000000	101.608753 
2486.000000	101.597976 
2485.000000	101.589155 
2484.000000	101.580214 
2483.000000	101.570248 
2482.000000	101.560854 
2481.000000	101.552629 
2480.000000	101.544713 
2479.000000	101.536846 
2478.000000	101.528596 
2477.000000	101.518177 
2476.000000	101.504349 
2475.000000	101.489067 
2474.000000	101.475501 
2473.000000	101.463699 
2472.000000	101.451992 
2471.000000	101.439738 
2470.000000	101.427531 
2469.000000	101.415348 
2468.000000	101.403951 
2467.000000	101.394081 
2466.000000	101.384162 
2465.000000	101.370787 
2464.000000	101.354265 
2463.000000	101.338934 
2462.000000	101.327252 
2461.000000	101.317358 
2460.000000	101.306962 
2459.000000	101.296210 
2458.000000	101.284885 
2457.000000	101.271533 
2456.000000	101.256251 
2455.000000	101.240754 
2454.000000	101.225781 
2453.000000	101.210951 
2452.000000	101.197004 
2451.000000	101.184773 
2450.000000	101.173114 
2449.000000	101.159739 
2448.000000	101.144075 
2447.000000	101.127433 
2446.000000	101.110792 
2445.000000	101.094245 
2444.000000	101.077628 
2443.000000	101.061415 
2442.000000	101.045942 
2441.000000	101.030850 
2440.000000	101.014924 
2439.000000	100.997591 
2438.000000	100.979590 
2437.000000	100.962281 
2436.000000	100.946187 
2435.000000	100.931358 
2434.000000	100.917172 
2433.000000	100.902390 
2432.000000	100.886058 
2431.000000	100.869035 
2430.000000	100.853037 
2429.000000	100.838232 
2428.000000	100.823402 
2427.000000	100.808095 
2426.000000	100.792527 
2425.000000	100.775718 
2424.000000	100.757145 
2423.000000	100.738763 
2422.000000	100.722193 
2421.000000	100.705099 
2420.000000	100.685334 
2419.000000	100.665163 
2418.000000	100.647735 
2417.000000	100.631713 
2416.000000	100.613522 
2415.000000	100.592327 
2414.000000	100.569725 
2413.000000	100.547051 
2412.000000	100.525903 
2411.000000	100.508213 
2410.000000	100.493526 
2409.000000	100.478792 
2408.000000	100.462794 
2407.000000	100.446105 
2406.000000	100.427341 
2405.000000	100.403976 
2404.000000	100.377678 
2403.000000	100.353312 
2402.000000	100.332283 
2401.000000	100.311422 
2400.000000	100.288724 
2399.000000	100.266003 
2398.000000	100.244879 
2397.000000	100.225043 
2396.000000	100.205492 
2395.000000	100.186347 
2394.000000	100.167775 
2393.000000	100.149631 
2392.000000	100.131082 
2391.000000	100.111413 
2390.000000	100.089931 
2389.000000	100.066661 
2388.000000	100.041413 
2387.000000	100.014472 
2386.000000	99.985408  
2385.000000	99.952697  
2384.000000	99.914073  
2383.000000	99.869751  
2382.000000	99.821710  
2381.000000	99.770665  
2380.000000	99.715137  
2379.000000	99.655103  
2378.000000	99.592065  
2377.000000	99.525475  
2376.000000	99.453425  
2375.000000	99.377822  
2374.000000	99.302506  
2373.000000	99.226260  
2372.000000	99.143743  
2371.000000	99.053311  
2370.000000	98.956608  
2369.000000	98.855090  
2368.000000	98.753738  
2367.000000	98.663616  
2366.000000	98.586773  
2365.000000	98.511719  
2364.000000	98.431897  
2363.000000	98.361158  
2362.000000	98.312282  
2361.000000	98.278141  
2360.000000	98.246860  
2359.000000	98.223423  
2358.000000	98.221611  
2357.000000	98.246526  
2356.000000	98.295998  
2355.000000	98.368191  
2354.000000	98.456811  
2353.000000	98.549652  
2352.000000	98.636054  
2351.000000	98.710298  
2350.000000	98.763942  
2349.000000	98.782300  
2348.000000	98.752689  
2347.000000	98.676419  
2346.000000	98.572254  
2345.000000	98.470163  
2344.000000	98.396515  
2343.000000	98.360109  
2342.000000	98.350024  
2341.000000	98.348236  
2340.000000	98.342537  
2339.000000	98.328995  
2338.000000	98.307323  
2337.000000	98.283267  
2336.000000	98.267364  
2335.000000	98.266386  
2334.000000	98.275160  
2333.000000	98.282074  
2332.000000	98.281860  
2331.000000	98.281121  
2330.000000	98.290419  
2329.000000	98.310947  
2328.000000	98.333859  
2327.000000	98.350501  
2326.000000	98.359870  
2325.000000	98.364186  
2324.000000	98.365926  
2323.000000	98.371505  
2322.000000	98.386573  
2321.000000	98.406267  
2320.000000	98.421502  
2319.000000	98.432946  
2318.000000	98.449206  
2317.000000	98.470401  
2316.000000	98.487329  
2315.000000	98.495101  
2314.000000	98.495888  
2313.000000	98.491072  
2312.000000	98.482561  
2311.000000	98.476982  
2310.000000	98.479437  
2309.000000	98.486542  
2308.000000	98.494076  
2307.000000	98.504257  
2306.000000	98.519206  
2305.000000	98.533558  
2304.000000	98.541784  
2303.000000	98.545026  
2302.000000	98.546433  
2301.000000	98.545265  
2300.000000	98.540568  
2299.000000	98.534750  
2298.000000	98.530364  
2297.000000	98.527503  
2296.000000	98.526096  
2295.000000	98.526716  
2294.000000	98.527455  
2293.000000	98.525190  
2292.000000	98.519396  
2291.000000	98.513102  
2290.000000	98.509168  
2289.000000	98.508405  
2288.000000	98.510122  
2287.000000	98.512768  
2286.000000	98.514318  
2285.000000	98.512649  
2284.000000	98.507595  
2283.000000	98.500227  
2282.000000	98.491930  
2281.000000	98.482441  
2280.000000	98.470878  
2279.000000	98.458266  
2278.000000	98.447489  
2277.000000	98.438858  
2276.000000	98.429679  
2275.000000	98.419523  
2274.000000	98.411536  
2273.000000	98.406076  
2272.000000	98.399472  
2271.000000	98.390746  
2270.000000	98.383617  
2269.000000	98.379826  
2268.000000	98.376655  
2267.000000	98.372197  
2266.000000	98.367357  
2265.000000	98.361992  
2264.000000	98.355031  
2263.000000	98.348355  
2262.000000	98.345184  
2261.000000	98.344993  
2260.000000	98.344373  
2259.000000	98.342037  
2258.000000	98.338484  
2257.000000	98.332786  
2256.000000	98.324775  
2255.000000	98.317074  
2254.000000	98.312187  
2253.000000	98.308968  
2252.000000	98.305916  
2251.000000	98.304057  
2250.000000	98.303866  
2249.000000	98.303246  
2248.000000	98.301458  
2247.000000	98.301196  
2246.000000	98.303270  
2245.000000	98.304557  
2244.000000	98.302412  
2243.000000	98.298358  
2242.000000	98.295640  
2241.000000	98.295497  
2240.000000	98.297095  
2239.000000	98.298811  
2238.000000	98.299527  
2237.000000	98.299074  
2236.000000	98.298549  
2235.000000	98.299360  
2234.000000	98.301815  
2233.000000	98.305177  
2232.000000	98.308086  
2231.000000	98.309826  
2230.000000	98.310518  
2229.000000	98.310208  
2228.000000	98.308777  
2227.000000	98.307371  
2226.000000	98.308610  
2225.000000	98.312401  
2224.000000	98.315691  
2223.000000	98.317408  
2222.000000	98.320436  
2221.000000	98.326349  
2220.000000	98.332405  
2219.000000	98.336267  
2218.000000	98.339390  
2217.000000	98.343086  
2216.000000	98.346209  
2215.000000	98.348855  
2214.000000	98.353028  
2213.000000	98.358273  
2212.000000	98.362278  
2211.000000	98.365354  
2210.000000	98.370027  
2209.000000	98.376059  
2208.000000	98.381471  
2207.000000	98.386621  
2206.000000	98.393535  
2205.000000	98.401284  
2204.000000	98.407983  
2203.000000	98.414564  
2202.000000	98.422241  
2201.000000	98.429083  
2200.000000	98.433566  
2199.000000	98.437905  
2198.000000	98.444843  
2197.000000	98.453569  
2196.000000	98.462200  
2195.000000	98.471426  
2194.000000	98.481702  
2193.000000	98.491287  
2192.000000	98.499131  
2191.000000	98.506689  
2190.000000	98.514342  
2189.000000	98.520874  
2188.000000	98.526430  
2187.000000	98.532986  
2186.000000	98.540902  
2185.000000	98.548865  
2184.000000	98.556923  
2183.000000	98.566865  
2182.000000	98.578953  
2181.000000	98.591208  
2180.000000	98.602008  
2179.000000	98.612046  
2178.000000	98.622679  
2177.000000	98.634362  
2176.000000	98.646116  
2175.000000	98.657059  
2174.000000	98.666858  
2173.000000	98.675847  
2172.000000	98.684692  
2171.000000	98.694586  
2170.000000	98.706793  
2169.000000	98.720812  
2168.000000	98.734402  
2167.000000	98.746752  
2166.000000	98.759222  
2165.000000	98.772025  
2164.000000	98.783636  
2163.000000	98.794221  
2162.000000	98.806333  
2161.000000	98.820686  
2160.000000	98.836231  
2159.000000	98.853969  
2158.000000	98.875188  
2157.000000	98.896312  
2156.000000	98.912024  
2155.000000	98.922991  
2154.000000	98.934412  
2153.000000	98.947238  
2152.000000	98.959159  
2151.000000	98.971080  
2150.000000	98.985862  
2149.000000	99.002528  
2148.000000	99.019408  
2147.000000	99.038624  
2146.000000	99.061059  
2145.000000	99.081969  
2144.000000	99.097967  
2143.000000	99.112820  
2142.000000	99.129724  
2141.000000	99.145555  
2140.000000	99.158382  
2139.000000	99.172496  
2138.000000	99.190926  
2137.000000	99.210095  
2136.000000	99.226212  
2135.000000	99.240899  
2134.000000	99.256730  
2133.000000	99.273705  
2132.000000	99.290943  
2131.000000	99.308776  
2130.000000	99.326801  
2129.000000	99.343109  
2128.000000	99.356555  
2127.000000	99.368548  
2126.000000	99.382328  
2125.000000	99.399280  
2124.000000	99.417257  
2123.000000	99.433946  
2122.000000	99.449467  
2121.000000	99.465370  
2120.000000	99.481844  
2119.000000	99.498939  
2118.000000	99.518227  
2117.000000	99.539327  
2116.000000	99.558115  
2115.000000	99.572682  
2114.000000	99.586606  
2113.000000	99.603486  
2112.000000	99.622297  
2111.000000	99.641299  
2110.000000	99.660754  
2109.000000	99.680089  
2108.000000	99.696898  
2107.000000	99.711465  
2106.000000	99.727058  
2105.000000	99.744534  
2104.000000	99.761700  
2103.000000	99.778151  
2102.000000	99.795627  
2101.000000	99.813199  
2100.000000	99.828886  
2099.000000	99.844646  
2098.000000	99.863076  
2097.000000	99.881863  
2096.000000	99.896979  
2095.000000	99.909830  
2094.000000	99.924015  
2093.000000	99.939250  
2092.000000	99.954223  
2091.000000	99.970722  
2090.000000	99.988961  
2089.000000	100.004172 
2088.000000	100.014567 
2087.000000	100.025701 
2086.000000	100.041747 
2085.000000	100.059509 
2084.000000	100.075531 
2083.000000	100.091886 
2082.000000	100.109791 
2081.000000	100.126266 
2080.000000	100.139856 
2079.000000	100.153398 
2078.000000	100.168633 
2077.000000	100.183749 
2076.000000	100.198268 
2075.000000	100.214052 
2074.000000	100.231289 
2073.000000	100.248193 
2072.000000	100.263953 
2071.000000	100.279545 
2070.000000	100.295710 
2069.000000	100.311636 
2068.000000	100.326371 
2067.000000	100.340390 
2066.000000	100.355100 
2065.000000	100.370645 
2064.000000	100.385475 
2063.000000	100.399065 
2062.000000	100.413465 
2061.000000	100.429892 
2060.000000	100.446581 
2059.000000	100.461411 
2058.000000	100.474715 
2057.000000	100.486445 
2056.000000	100.495791 
2055.000000	100.505208 
2054.000000	100.519084 
2053.000000	100.537276 
2052.000000	100.554776 
2051.000000	100.569820 
2050.000000	100.584959 
2049.000000	100.600457 
2048.000000	100.614023 
2047.000000	100.627136 
2046.000000	100.642657 
2045.000000	100.657677 
2044.000000	100.667977 
2043.000000	100.676536 
2042.000000	100.688171 
2041.000000	100.700163 
2040.000000	100.708413 
2039.000000	100.717425 
2038.000000	100.732922 
2037.000000	100.751399 
2036.000000	100.766682 
2035.000000	100.779938 
2034.000000	100.794649 
2033.000000	100.809264 
2032.000000	100.821900 
2031.000000	100.835609 
2030.000000	100.852298 
2029.000000	100.868821 
2028.000000	100.882983 
2027.000000	100.897526 
2026.000000	100.914669 
2025.000000	100.932121 
2024.000000	100.946879 
2023.000000	100.958418 
2022.000000	100.967288 
2021.000000	100.974798 
2020.000000	100.983905 
2019.000000	100.996685 
2018.000000	101.010990 
2017.000000	101.022577 
2016.000000	101.030349 
2015.000000	101.036763 
2014.000000	101.044321 
2013.000000	101.052808 
2012.000000	101.060461 
2011.000000	101.067638 
2010.000000	101.077055 
2009.000000	101.089000 
2008.000000	101.099967 
2007.000000	101.107740 
2006.000000	101.114892 
2005.000000	101.123023 
2004.000000	101.129937 
2003.000000	101.134657 
2002.000000	101.140141 
2001.000000	101.147317 
2000.000000	101.153135 
1999.000000	101.156544 
1998.000000	101.160216 
1997.000000	101.164269 
1996.000000	101.166915 
1995.000000	101.171231 
1994.000000	101.181912 
1993.000000	101.195240 
1992.000000	101.202750 
1991.000000	101.202917 
1990.000000	101.200890 
1989.000000	101.198363 
1988.000000	101.194286 
1987.000000	101.191592 
1986.000000	101.193618 
1985.000000	101.196932 
1984.000000	101.196765 
1983.000000	101.195263 
1982.000000	101.196026 
1981.000000	101.197075 
1980.000000	101.195716 
1979.000000	101.194596 
1978.000000	101.196074 
1977.000000	101.197361 
1976.000000	101.196360 
1975.000000	101.195025 
1974.000000	101.193690 
1973.000000	101.189088 
1972.000000	101.181530 
1971.000000	101.175808 
1970.000000	101.173543 
1969.000000	101.170682 
1968.000000	101.164555 
1967.000000	101.156425 
1966.000000	101.147651 
1965.000000	101.136875 
1964.000000	101.123595 
1963.000000	101.109766 
1962.000000	101.097178 
1961.000000	101.085638 
1960.000000	101.073908 
1959.000000	101.061892 
1958.000000	101.051092 
1957.000000	101.042222 
1956.000000	101.033926 
1955.000000	101.025056 
1954.000000	101.016259 
1953.000000	101.007628 
1952.000000	100.997471 
1951.000000	100.985455 
1950.000000	100.974011 
1949.000000	100.963807 
1948.000000	100.952386 
1947.000000	100.939178 
1946.000000	100.927424 
1945.000000	100.918745 
1944.000000	100.911164 
1943.000000	100.903797 
1942.000000	100.897932 
1941.000000	100.892210 
1940.000000	100.885605 
1939.000000	100.882983 
1938.000000	100.888991 
1937.000000	100.898289 
1936.000000	100.902891 
1935.000000	100.905203 
1934.000000	100.911593 
1933.000000	100.918436 
1932.000000	100.918054 
1931.000000	100.912666 
1930.000000	100.908684 
1929.000000	100.904893 
1928.000000	100.898075 
1927.000000	100.892400 
1926.000000	100.891613 
1925.000000	100.890469 
1924.000000	100.882697 
1923.000000	100.870251 
1922.000000	100.857949 
1921.000000	100.846552 
1920.000000	100.836944 
1919.000000	100.831127 
1918.000000	100.825595 
1917.000000	100.813078 
1916.000000	100.793600 
1915.000000	100.774979 
1914.000000	100.761055 
1913.000000	100.748634 
1912.000000	100.735259 
1911.000000	100.721883 
1910.000000	100.706696 
1909.000000	100.686120 
1908.000000	100.660824 
1907.000000	100.636172 
1906.000000	100.615596 
1905.000000	100.597047 
1904.000000	100.575995 
1903.000000	100.552010 
1902.000000	100.528597 
1901.000000	100.507092 
1900.000000	100.484204 
1899.000000	100.459599 
1898.000000	100.438046 
1897.000000	100.420498 
1896.000000	100.399279 
1895.000000	100.369596 
1894.000000	100.337147 
1893.000000	100.308656 
1892.000000	100.283026 
1891.000000	100.256943 
1890.000000	100.229692 
1889.000000	100.199484 
1888.000000	100.164341 
1887.000000	100.129294 
1886.000000	100.100922 
1885.000000	100.076484 
1884.000000	100.048589 
1883.000000	100.018930 
1882.000000	99.994325  
1881.000000	99.972486  
1880.000000	99.946331  
1879.000000	99.918365  
1878.000000	99.894738  
1877.000000	99.872040  
1876.000000	99.844598  
1875.000000	99.816894  
1874.000000	99.794292  
1873.000000	99.773502  
1872.000000	99.752950  
1871.000000	99.740147  
1870.000000	99.734592  
1869.000000	99.721074  
1868.000000	99.691104  
1867.000000	99.656462  
1866.000000	99.631047  
1865.000000	99.613952  
1864.000000	99.598908  
1863.000000	99.586057  
1862.000000	99.576544  
1861.000000	99.566960  
1860.000000	99.553585  
1859.000000	99.536871  
1858.000000	99.519014  
1857.000000	99.501276  
1856.000000	99.483942  
1855.000000	99.466276  
1854.000000	99.447321  
1853.000000	99.426531  
1852.000000	99.403738  
1851.000000	99.380111  
1850.000000	99.357938  
1849.000000	99.337673  
1848.000000	99.317193  
1847.000000	99.297404  
1846.000000	99.281215  
1845.000000	99.262046  
1844.000000	99.226140  
1843.000000	99.176049  
1842.000000	99.133586  
1841.000000	99.109983  
1840.000000	99.091601  
1839.000000	99.066162  
1838.000000	99.039006  
1837.000000	99.014306  
1836.000000	98.984336  
1835.000000	98.948597  
1834.000000	98.918914  
1833.000000	98.898172  
1832.000000	98.874044  
1831.000000	98.839187  
1830.000000	98.798632  
1829.000000	98.756909  
1828.000000	98.714900  
1827.000000	98.677182  
1826.000000	98.644948  
1825.000000	98.607587  
1824.000000	98.558926  
1823.000000	98.511290  
1822.000000	98.476743  
1821.000000	98.446130  
1820.000000	98.407101  
1819.000000	98.364806  
1818.000000	98.327875  
1817.000000	98.290443  
1816.000000	98.246026  
1815.000000	98.203301  
1814.000000	98.170924  
1813.000000	98.141193  
1812.000000	98.101663  
1811.000000	98.051238  
1810.000000	97.996926  
1809.000000	97.943162  
1808.000000	97.891402  
1807.000000	97.843265  
1806.000000	97.800445  
1805.000000	97.763514  
1804.000000	97.730541  
1803.000000	97.697758  
1802.000000	97.662281  
1801.000000	97.621583  
1800.000000	97.572970  
1799.000000	97.520375  
1798.000000	97.476935  
1797.000000	97.448301  
1796.000000	97.421979  
1795.000000	97.387337  
1794.000000	97.350525  
1793.000000	97.313261  
1792.000000	97.258353  
1791.000000	97.181987  
1790.000000	97.111749  
1789.000000	97.066664  
1788.000000	97.027707  
1787.000000	96.974921  
1786.000000	96.916675  
1785.000000	96.861338  
1784.000000	96.797347  
1783.000000	96.726107  
1782.000000	96.666169  
1781.000000	96.611118  
1780.000000	96.533513  
1779.000000	96.441316  
1778.000000	96.368575  
1777.000000	96.310615  
1776.000000	96.237659  
1775.000000	96.157264  
1774.000000	96.086692  
1773.000000	95.986747  
1772.000000	95.820879  
1771.000000	95.636057  
1770.000000	95.501160  
1769.000000	95.388340  
1768.000000	95.229101  
1767.000000	95.028185  
1766.000000	94.853353  
1765.000000	94.707250  
1764.000000	94.537186  
1763.000000	94.290208  
1762.000000	93.973088  
1761.000000	93.614959  
1760.000000	93.267178  
1759.000000	92.926311  
1758.000000	92.505550  
1757.000000	91.908597  
1756.000000	91.191291  
1755.000000	90.496778  
1754.000000	89.838409  
1753.000000	89.038443  
1752.000000	87.921953  
1751.000000	86.450052  
1750.000000	84.676337  
1749.000000	82.710623  
1748.000000	80.752420  
1747.000000	78.976011  
1746.000000	77.383923  
1745.000000	75.894069  
1744.000000	74.543166  
1743.000000	73.431372  
1742.000000	72.597551  
1741.000000	72.083353  
1740.000000	71.991991  
1739.000000	72.259616  
1738.000000	72.618770  
1737.000000	72.959971  
1736.000000	73.578810  
1735.000000	74.785780  
1734.000000	76.454329  
1733.000000	78.086137  
1732.000000	79.328989  
1731.000000	80.222535  
1730.000000	81.031465  
1729.000000	81.868982  
1728.000000	82.625579  
1727.000000	83.182501  
1726.000000	83.595466  
1725.000000	83.981084  
1724.000000	84.368515  
1723.000000	84.709930  
1722.000000	84.974479  
1721.000000	85.174512  
1720.000000	85.372424  
1719.000000	85.660219  
1718.000000	86.087131  
1717.000000	86.587691  
1716.000000	87.062072  
1715.000000	87.469530  
1714.000000	87.830781  
1713.000000	88.162708  
1712.000000	88.482284  
1711.000000	88.812756  
1710.000000	89.155387  
1709.000000	89.475345  
1708.000000	89.769434  
1707.000000	90.084624  
1706.000000	90.438342  
1705.000000	90.762996  
1704.000000	90.985608  
1703.000000	91.119623  
1702.000000	91.245126  
1701.000000	91.413855  
1700.000000	91.604518  
1699.000000	91.761350  
1698.000000	91.864562  
1697.000000	91.948914  
1696.000000	92.056918  
1695.000000	92.184829  
1694.000000	92.290663  
1693.000000	92.354917  
1692.000000	92.410206  
1691.000000	92.498970  
1690.000000	92.614889  
1689.000000	92.715835  
1688.000000	92.780876  
1687.000000	92.832589  
1686.000000	92.901778  
1685.000000	93.000221  
1684.000000	93.117332  
1683.000000	93.222665  
1682.000000	93.285322  
1681.000000	93.313694  
1680.000000	93.347716  
1679.000000	93.399953  
1678.000000	93.443727  
1677.000000	93.475580  
1676.000000	93.529987  
1675.000000	93.612599  
1674.000000	93.679356  
1673.000000	93.707990  
1672.000000	93.732547  
1671.000000	93.786001  
1670.000000	93.856358  
1669.000000	93.917655  
1668.000000	93.960762  
1667.000000	93.985724  
1666.000000	93.996119  
1665.000000	94.004750  
1664.000000	94.024157  
1663.000000	94.050312  
1662.000000	94.065856  
1661.000000	94.060850  
1660.000000	94.045305  
1659.000000	94.036412  
1658.000000	94.034051  
1657.000000	94.022750  
1656.000000	94.007444  
1655.000000	94.022774  
1654.000000	94.087481  
1653.000000	94.169783  
1652.000000	94.223213  
1651.000000	94.237041  
1650.000000	94.234108  
1649.000000	94.241881  
1648.000000	94.278192  
1647.000000	94.340991  
1646.000000	94.399952  
1645.000000	94.421911  
1644.000000	94.411826  
1643.000000	94.406199  
1642.000000	94.425320  
1641.000000	94.456648  
1640.000000	94.485616  
1639.000000	94.517874  
1638.000000	94.566249  
1637.000000	94.633531  
1636.000000	94.710469  
1635.000000	94.777417  
1634.000000	94.813084  
1633.000000	94.815826  
1632.000000	94.810819  
1631.000000	94.822168  
1630.000000	94.850468  
1629.000000	94.888329  
1628.000000	94.936585  
1627.000000	94.990348  
1626.000000	95.033907  
1625.000000	95.068454  
1624.000000	95.117330  
1623.000000	95.186233  
1622.000000	95.245552  
1621.000000	95.272302  
1620.000000	95.283699  
1619.000000	95.313811  
1618.000000	95.373249  
1617.000000	95.445322  
1616.000000	95.504117  
1615.000000	95.534348  
1614.000000	95.538949  
1613.000000	95.534801  
1612.000000	95.536041  
1611.000000	95.542621  
1610.000000	95.540857  
1609.000000	95.515513  
1608.000000	95.458316  
1607.000000	95.369315  
1606.000000	95.251536  
1605.000000	95.110988  
1604.000000	94.964909  
1603.000000	94.845390  
1602.000000	94.786524  
1601.000000	94.806098  
1600.000000	94.901180  
1599.000000	95.051884  
1598.000000	95.228624  
1597.000000	95.401406  
1596.000000	95.553302  
1595.000000	95.682454  
1594.000000	95.788645  
1593.000000	95.870876  
1592.000000	95.936584  
1591.000000	95.998334  
1590.000000	96.056032  
1589.000000	96.099090  
1588.000000	96.123147  
1587.000000	96.132993  
1586.000000	96.129417  
1585.000000	96.113181  
1584.000000	96.100282  
1583.000000	96.117520  
1582.000000	96.174860  
1581.000000	96.255207  
1580.000000	96.333742  
1579.000000	96.405124  
1578.000000	96.485376  
1577.000000	96.587634  
1576.000000	96.698284  
1575.000000	96.783781  
1574.000000	96.823358  
1573.000000	96.831631  
1572.000000	96.847915  
1571.000000	96.897673  
1570.000000	96.970677  
1569.000000	97.040295  
1568.000000	97.091269  
1567.000000	97.121715  
1566.000000	97.141504  
1565.000000	97.174215  
1564.000000	97.225093  
1563.000000	97.253346  
1562.000000	97.232770  
1561.000000	97.224950  
1560.000000	97.310137  
1559.000000	97.457599  
1558.000000	97.556519  
1557.000000	97.569251  
1556.000000	97.558736  
1555.000000	97.573542  
1554.000000	97.595548  
1553.000000	97.602248  
1552.000000	97.606706  
1551.000000	97.625970  
1550.000000	97.656464  
1549.000000	97.684240  
1548.000000	97.700047  
1547.000000	97.708082  
1546.000000	97.726631  
1545.000000	97.767400  
1544.000000	97.815895  
1543.000000	97.850990  
1542.000000	97.883558  
1541.000000	97.945475  
1540.000000	98.035764  
1539.000000	98.107337  
1538.000000	98.121809  
1537.000000	98.095607  
1536.000000	98.077893  
1535.000000	98.099470  
1534.000000	98.151612  
1533.000000	98.207235  
1532.000000	98.249244  
1531.000000	98.276448  
1530.000000	98.294019  
1529.000000	98.312926  
1528.000000	98.350048  
1527.000000	98.406410  
1526.000000	98.455190  
1525.000000	98.475623  
1524.000000	98.487424  
1523.000000	98.525786  
1522.000000	98.590826  
1521.000000	98.648285  
1520.000000	98.674106  
1519.000000	98.678660  
1518.000000	98.687434  
1517.000000	98.714447  
1516.000000	98.750305  
1515.000000	98.773360  
1514.000000	98.774266  
1513.000000	98.771429  
1512.000000	98.785519  
1511.000000	98.806524  
1510.000000	98.816084  
1509.000000	98.839616  
1508.000000	98.908948  
1507.000000	98.992776  
1506.000000	99.018716  
1505.000000	98.973369  
1504.000000	98.909115  
1503.000000	98.863339  
1502.000000	98.822212  
1501.000000	98.761940  
1500.000000	98.671555  
1499.000000	98.519444  
1498.000000	98.211860  
1497.000000	97.661662  
1496.000000	96.943163  
1495.000000	96.303963  
1494.000000	95.940089  
1493.000000	95.855665  
1492.000000	96.026158  
1491.000000	96.498465  
1490.000000	97.197318  
1489.000000	97.830772  
1488.000000	98.185443  
1487.000000	98.338127  
1486.000000	98.451805  
1485.000000	98.547863  
1484.000000	98.599481  
1483.000000	98.642778  
1482.000000	98.691844  
1481.000000	98.700666  
1480.000000	98.670578  
1479.000000	98.646187  
1478.000000	98.606181  
1477.000000	98.507547  
1476.000000	98.398256  
1475.000000	98.313951  
1474.000000	98.116612  
1473.000000	97.652101  
1472.000000	96.994280  
1471.000000	96.349334  
1470.000000	95.776295  
1469.000000	95.210647  
1468.000000	94.653129  
1467.000000	94.144368  
1466.000000	93.656206  
1465.000000	93.186998  
1464.000000	92.840051  
1463.000000	92.662286  
1462.000000	92.562627  
1461.000000	92.489242  
1460.000000	92.488098  
1459.000000	92.481780  
1458.000000	92.255520  
1457.000000	91.769456  
1456.000000	91.258358  
1455.000000	90.929007  
1454.000000	90.785908  
1453.000000	90.793275  
1452.000000	90.975928  
1451.000000	91.297483  
1450.000000	91.626620  
1449.000000	91.879773  
1448.000000	92.058539  
1447.000000	92.162990  
1446.000000	92.172122  
1445.000000	92.110514  
1444.000000	92.011618  
1443.000000	91.864609  
1442.000000	91.644144  
1441.000000	91.379928  
1440.000000	91.112565  
1439.000000	90.857768  
1438.000000	90.638756  
1437.000000	90.532588  
1436.000000	90.615510  
1435.000000	90.892577  
1434.000000	91.320466  
1433.000000	91.866517  
1432.000000	92.525100  
1431.000000	93.272542  
1430.000000	94.036841  
1429.000000	94.714450  
1428.000000	95.228528  
1427.000000	95.580887  
1426.000000	95.839786  
1425.000000	96.065664  
1424.000000	96.255183  
1423.000000	96.374607  
1422.000000	96.429276  
1421.000000	96.473193  
1420.000000	96.550321  
1419.000000	96.664047  
1418.000000	96.793651  
1417.000000	96.928310  
1416.000000	97.064375  
1415.000000	97.208905  
1414.000000	97.366738  
1413.000000	97.540140  
1412.000000	97.715282  
1411.000000	97.875809  
1410.000000	98.008584  
1409.000000	98.111534  
1408.000000	98.188757  
1407.000000	98.243165  
1406.000000	98.270773  
1405.000000	98.267316  
1404.000000	98.235893  
1403.000000	98.186230  
1402.000000	98.133802  
1401.000000	98.097920  
1400.000000	98.089241  
1399.000000	98.096513  
1398.000000	98.102116  
1397.000000	98.107218  
1396.000000	98.123025  
1395.000000	98.142671  
1394.000000	98.154926  
1393.000000	98.173856  
1392.000000	98.223423  
1391.000000	98.300123  
1390.000000	98.394751  
1389.000000	98.521375  
1388.000000	98.685002  
1387.000000	98.835897  
1386.000000	98.907732  
1385.000000	98.877978  
1384.000000	98.758935  
1383.000000	98.559904  
1382.000000	98.296451  
1381.000000	98.005294  
1380.000000	97.718667  
1379.000000	97.445178  
1378.000000	97.194337  
1377.000000	96.981859  
1376.000000	96.799421  
1375.000000	96.614432  
1374.000000	96.418929  
1373.000000	96.241807  
1372.000000	96.106171  
1371.000000	96.002125  
1370.000000	95.909953  
1369.000000	95.820426  
1368.000000	95.731830  
1367.000000	95.644736  
1366.000000	95.568656  
1365.000000	95.509886  
1364.000000	95.462632  
1363.000000	95.416259  
1362.000000	95.375871  
1361.000000	95.354151  
1360.000000	95.358061  
1359.000000	95.382690  
1358.000000	95.422744  
1357.000000	95.473194  
1356.000000	95.529818  
1355.000000	95.585799  
1354.000000	95.638465  
1353.000000	95.689392  
1352.000000	95.744276  
1351.000000	95.806503  
1350.000000	95.875859  
1349.000000	95.950484  
1348.000000	96.030235  
1347.000000	96.115064  
1346.000000	96.202731  
1345.000000	96.290302  
1344.000000	96.375250  
1343.000000	96.454906  
1342.000000	96.526980  
1341.000000	96.589875  
1340.000000	96.638560  
1339.000000	96.663022  
1338.000000	96.659111  
1337.000000	96.635937  
1336.000000	96.606540  
1335.000000	96.571898  
1334.000000	96.526479  
1333.000000	96.469330  
1332.000000	96.403980  
1331.000000	96.329188  
1330.000000	96.243333  
1329.000000	96.149897  
1328.000000	96.056294  
1327.000000	95.965552  
1326.000000	95.878720  
1325.000000	95.797920  
1324.000000	95.727348  
1323.000000	95.669031  
1322.000000	95.623207  
1321.000000	95.587921  
1320.000000	95.559835  
1319.000000	95.535397  
1318.000000	95.511746  
1317.000000	95.487117  
1316.000000	95.460939  
1315.000000	95.431876  
1314.000000	95.397067  
1313.000000	95.354509  
1312.000000	95.306229  
1311.000000	95.256519  
1310.000000	95.208406  
1309.000000	95.164465  
1308.000000	95.128726  
1307.000000	95.103001  
1306.000000	95.083713  
1305.000000	95.066428  
1304.000000	95.050764  
1303.000000	95.038127  
1302.000000	95.025992  
1301.000000	95.011520  
1300.000000	94.993996  
1299.000000	94.974064  
1298.000000	94.949769  
1297.000000	94.920897  
1296.000000	94.889307  
1295.000000	94.856595  
1294.000000	94.820904  
1293.000000	94.780063  
1292.000000	94.731688  
1291.000000	94.671082  
1290.000000	94.591617  
1289.000000	94.489765  
1288.000000	94.367122  
1287.000000	94.228053  
1286.000000	94.077420  
1285.000000	93.920183  
1284.000000	93.762421  
1283.000000	93.610143  
1282.000000	93.468332  
1281.000000	93.339467  
1280.000000	93.224692  
1279.000000	93.123483  
1278.000000	93.032598  
1277.000000	92.945003  
1276.000000	92.854475  
1275.000000	92.758464  
1274.000000	92.656350  
1273.000000	92.547130  
1272.000000	92.432069  
1271.000000	92.316174  
1270.000000	92.203617  
1269.000000	92.095732  
1268.000000	91.994261  
1267.000000	91.901803  
1266.000000	91.817235  
1265.000000	91.736054  
1264.000000	91.657161  
1263.000000	91.581368  
1262.000000	91.504693  
1261.000000	91.419148  
1260.000000	91.322278  
1259.000000	91.216707  
1258.000000	91.102933  
1257.000000	90.977787  
1256.000000	90.842390  
1255.000000	90.700912  
1254.000000	90.556263  
1253.000000	90.409541  
1252.000000	90.266180  
1251.000000	90.131163  
1250.000000	90.007829  
1249.000000	89.899182  
1248.000000	89.812326  
1247.000000	89.751219  
1246.000000	89.714264  
1245.000000	89.698505  
1244.000000	89.704728  
1243.000000	89.731907  
1242.000000	89.774513  
1241.000000	89.826297  
1240.000000	89.885091  
1239.000000	89.949393  
1238.000000	90.015864  
1237.000000	90.080976  
1236.000000	90.142822  
1235.000000	90.199518  
1234.000000	90.248274  
1233.000000	90.285801  
1232.000000	90.310668  
1231.000000	90.322756  
1230.000000	90.322399  
1229.000000	90.307950  
1228.000000	90.278625  
1227.000000	90.234661  
1226.000000	90.177583  
1225.000000	90.105772  
1224.000000	90.020823  
1223.000000	89.926099  
1222.000000	89.824914  
1221.000000	89.713931  
1220.000000	89.593100  
1219.000000	89.465641  
1218.000000	89.334893  
1217.000000	89.196062  
1216.000000	89.047408  
1215.000000	88.891625  
1214.000000	88.729786  
1213.000000	88.556790  
1212.000000	88.372230  
1211.000000	88.181543  
1210.000000	87.986302  
1209.000000	87.781953  
1208.000000	87.568330  
1207.000000	87.349653  
1206.000000	87.125802  
1205.000000	86.892819  
1204.000000	86.655521  
1203.000000	86.425662  
1202.000000	86.213254  
1201.000000	86.024165  
1200.000000	85.868453  
1199.000000	85.755634  
1198.000000	85.688519  
1197.000000	85.668063  
1196.000000	85.699391  
1195.000000	85.787749  
1194.000000	85.928177  
1193.000000	86.109995  
1192.000000	86.321353  
1191.000000	86.549425  
1190.000000	86.775970  
1189.000000	86.980867  
1188.000000	87.145543  
1187.000000	87.252426  
1186.000000	87.286829  
1185.000000	87.240910  
1184.000000	87.118220  
1183.000000	86.929965  
1182.000000	86.691021  
1181.000000	86.415386  
1180.000000	86.117839  
1179.000000	85.814023  
1178.000000	85.518407  
1177.000000	85.241103  
1176.000000	84.991145  
1175.000000	84.780645  
1174.000000	84.620761  
1173.000000	84.515094  
1172.000000	84.462189  
1171.000000	84.463357  
1170.000000	84.519267  
1169.000000	84.626412  
1168.000000	84.776020  
1167.000000	84.963011  
1166.000000	85.176730  
1165.000000	85.407042  
1164.000000	85.645365  
1163.000000	85.892105  
1162.000000	86.138963  
1161.000000	86.372590  
1160.000000	86.584520  
1159.000000	86.780881  
1158.000000	86.966395  
1157.000000	87.140440  
1156.000000	87.306213  
1155.000000	87.476587  
1154.000000	87.660932  
1153.000000	87.858462  
1152.000000	88.063263  
1151.000000	88.267302  
1150.000000	88.458204  
1149.000000	88.626503  
1148.000000	88.773512  
1147.000000	88.905405  
1146.000000	89.020299  
1145.000000	89.113450  
1144.000000	89.186334  
1143.000000	89.245700  
1142.000000	89.293909  
1141.000000	89.332652  
1140.000000	89.367985  
1139.000000	89.407467  
1138.000000	89.451837  
1137.000000	89.500641  
1136.000000	89.554500  
1135.000000	89.614200  
1134.000000	89.675736  
1133.000000	89.736390  
1132.000000	89.794921  
1131.000000	89.850568  
1130.000000	89.900684  
1129.000000	89.944982  
1128.000000	89.983725  
1127.000000	90.014314  
1126.000000	90.030527  
1125.000000	90.029644  
1124.000000	90.015077  
1123.000000	89.992499  
1122.000000	89.965891  
1121.000000	89.936304  
1120.000000	89.903903  
1119.000000	89.869117  
1118.000000	89.833474  
1117.000000	89.798617  
1116.000000	89.766073  
1115.000000	89.736127  
1114.000000	89.707279  
1113.000000	89.677119  
1112.000000	89.646029  
1111.000000	89.617419  
1110.000000	89.591574  
1109.000000	89.564776  
1108.000000	89.537239  
1107.000000	89.515662  
1106.000000	89.504528  
1105.000000	89.503931  
1104.000000	89.517283  
1103.000000	89.551210  
1102.000000	89.603614  
1101.000000	89.663052  
1100.000000	89.721822  
1099.000000	89.779973  
1098.000000	89.835405  
1097.000000	89.881134  
1096.000000	89.913892  
1095.000000	89.937281  
1094.000000	89.955711  
1093.000000	89.972496  
1092.000000	89.991950  
1091.000000	90.015959  
1090.000000	90.040302  
1089.000000	90.061879  
1088.000000	90.084314  
1087.000000	90.113544  
1086.000000	90.149021  
1085.000000	90.188431  
1084.000000	90.231490  
1083.000000	90.278100  
1082.000000	90.324163  
1081.000000	90.366816  
1080.000000	90.407299  
1079.000000	90.445995  
1078.000000	90.478515  
1077.000000	90.498518  
1076.000000	90.501308  
1075.000000	90.482807  
1074.000000	90.441775  
1073.000000	90.383529  
1072.000000	90.320754  
1071.000000	90.267848  
1070.000000	90.235376  
1069.000000	90.228462  
1068.000000	90.249514  
1067.000000	90.299177  
1066.000000	90.373730  
1065.000000	90.463972  
1064.000000	90.560102  
1063.000000	90.657496  
1062.000000	90.756249  
1061.000000	90.855956  
1060.000000	90.952229  
1059.000000	91.041111  
1058.000000	91.122603  
1057.000000	91.201090  
1056.000000	91.280937  
1055.000000	91.363239  
1054.000000	91.445040  
1053.000000	91.523385  
1052.000000	91.597700  
1051.000000	91.666436  
1050.000000	91.722726  
1049.000000	91.760301  
1048.000000	91.784667  
1047.000000	91.808319  
1046.000000	91.835808  
1045.000000	91.859769  
1044.000000	91.874122  
1043.000000	91.881966  
1042.000000	91.888499  
1041.000000	91.895127  
1040.000000	91.901302  
1039.000000	91.905760  
1038.000000	91.903924  
1037.000000	91.890573  
1036.000000	91.861486  
1035.000000	91.810655  
1034.000000	91.730690  
1033.000000	91.623258  
1032.000000	91.505002  
1031.000000	91.396737  
1030.000000	91.310310  
1029.000000	91.248607  
1028.000000	91.212892  
1027.000000	91.203570  
1026.000000	91.216683  
1025.000000	91.243815  
1024.000000	91.275596  
1023.000000	91.303968  
1022.000000	91.326546  
1021.000000	91.348099  
1020.000000	91.376233  
1019.000000	91.413712  
1018.000000	91.456818  
1017.000000	91.500401  
1016.000000	91.542959  
1015.000000	91.586709  
1014.000000	91.634750  
1013.000000	91.688847  
1012.000000	91.749095  
1011.000000	91.814804  
1010.000000	91.885519  
1009.000000	91.960573  
1008.000000	92.037749  
1007.000000	92.113471  
1006.000000	92.185115  
1005.000000	92.252612  
1004.000000	92.317843  
1003.000000	92.382240  
1002.000000	92.446255  
1001.000000	92.509222  
1000.000000	92.570447  
999.000000	 92.628550  
998.000000	 92.680835  
997.000000	 92.724204  
996.000000	 92.757320  
995.000000	 92.780780  
994.000000	 92.794919  
993.000000	 92.800021  
992.000000	 92.799448  
991.000000	 92.799115  
990.000000	 92.803788  
989.000000	 92.815256  
988.000000	 92.833924  
987.000000	 92.860031  
986.000000	 92.893123  
985.000000	 92.931985  
984.000000	 92.975497  
983.000000	 93.020057  
982.000000	 93.059635  
981.000000	 93.089866  
980.000000	 93.113470  
979.000000	 93.134951  
978.000000	 93.157410  
977.000000	 93.181729  
976.000000	 93.211102  
975.000000	 93.244361  
974.000000	 93.277978  
973.000000	 93.311238  
972.000000	 93.351221  
971.000000	 93.402767  
970.000000	 93.465328  
969.000000	 93.538331  
968.000000	 93.627500  
967.000000	 93.738794  
966.000000	 93.874216  
965.000000	 94.032764  
964.000000	 94.211626  
963.000000	 94.404387  
962.000000	 94.602465  
961.000000	 94.800090  
960.000000	 94.994306  
959.000000	 95.180749  
958.000000	 95.352864  
957.000000	 95.506167  
956.000000	 95.639109  
955.000000	 95.752525  
954.000000	 95.849800  
953.000000	 95.935940  
952.000000	 96.014618  
951.000000	 96.086311  
950.000000	 96.152877  
949.000000	 96.218419  
948.000000	 96.286463  
947.000000	 96.354651  
946.000000	 96.419930  
945.000000	 96.481823  
944.000000	 96.543669  
943.000000	 96.607184  
942.000000	 96.671175  
941.000000	 96.732854  
940.000000	 96.792769  
939.000000	 96.854329  
938.000000	 96.921110  
937.000000	 96.992945  
936.000000	 97.067093  
935.000000	 97.139549  
934.000000	 97.206735  
933.000000	 97.267556  
932.000000	 97.323656  
931.000000	 97.377467  
930.000000	 97.428297  
929.000000	 97.474861  
928.000000	 97.517037  
927.000000	 97.554993  
926.000000	 97.585368  
925.000000	 97.605323  
924.000000	 97.614932  
923.000000	 97.614884  
922.000000	 97.603774  
921.000000	 97.582173  
920.000000	 97.554945  
919.000000	 97.525215  
918.000000	 97.491788  
917.000000	 97.454905  
916.000000	 97.420430  
915.000000	 97.393631  
914.000000	 97.375941  
913.000000	 97.368526  
912.000000	 97.373867  
911.000000	 97.390556  
910.000000	 97.415137  
909.000000	 97.449707  
908.000000	 97.501301  
907.000000	 97.572898  
906.000000	 97.660183  
905.000000	 97.757911  
904.000000	 97.862291  
903.000000	 97.968983  
902.000000	 98.073077  
901.000000	 98.171353  
900.000000	 98.261690  
899.000000	 98.341464  
898.000000	 98.409533  
897.000000	 98.468494  
896.000000	 98.519635  
895.000000	 98.561048  
894.000000	 98.591446  
893.000000	 98.614144  
892.000000	 98.632431  
891.000000	 98.645758  
890.000000	 98.652005  
889.000000	 98.651027  
888.000000	 98.644065  
887.000000	 98.632478  
886.000000	 98.619842  
885.000000	 98.613286  
884.000000	 98.621082  
883.000000	 98.647284  
882.000000	 98.689889  
881.000000	 98.744654  
880.000000	 98.810148  
879.000000	 98.885154  
878.000000	 98.963689  
877.000000	 99.036645  
876.000000	 99.099588  
875.000000	 99.153828  
874.000000	 99.201178  
873.000000	 99.240231  
872.000000	 99.268889  
871.000000	 99.285197  
870.000000	 99.289608  
869.000000	 99.288654  
868.000000	 99.294495  
867.000000	 99.314641  
866.000000	 99.348211  
865.000000	 99.393105  
864.000000	 99.449729  
863.000000	 99.514222  
862.000000	 99.577331  
861.000000	 99.636530  
860.000000	 99.697923  
859.000000	 99.762654  
858.000000	 99.821209  
857.000000	 99.865841  
856.000000	 99.899077  
855.000000	 99.927330  
854.000000	 99.954462  
853.000000	 99.983072  
852.000000	 100.014114 
851.000000	 100.043964 
850.000000	 100.067734 
849.000000	 100.085258 
848.000000	 100.100517 
847.000000	 100.115847 
846.000000	 100.131654 
845.000000	 100.149154 
844.000000	 100.171303 
843.000000	 100.200581 
842.000000	 100.238680 
841.000000	 100.286006 
840.000000	 100.341057 
839.000000	 100.398468 
838.000000	 100.450038 
837.000000	 100.489401 
836.000000	 100.518226 
835.000000	 100.545763 
834.000000	 100.580525 
833.000000	 100.623822 
832.000000	 100.670838 
831.000000	 100.715017 
830.000000	 100.751614 
829.000000	 100.779104 
828.000000	 100.800633 
827.000000	 100.822401 
826.000000	 100.848579 
825.000000	 100.878238 
824.000000	 100.906538 
823.000000	 100.929045 
822.000000	 100.944828 
821.000000	 100.956869 
820.000000	 100.968313 
819.000000	 100.978612 
818.000000	 100.984406 
817.000000	 100.987362 
816.000000	 100.994563 
815.000000	 101.008987 
814.000000	 101.022648 
813.000000	 101.027727 
812.000000	 101.025557 
811.000000	 101.022076 
810.000000	 101.018667 
809.000000	 101.016378 
808.000000	 101.017737 
807.000000	 101.021003 
806.000000	 101.018571 
805.000000	 101.007008 
804.000000	 100.990867 
803.000000	 100.973510 
802.000000	 100.952243 
801.000000	 100.923347 
800.000000	 100.885915 
799.000000	 100.838923 
798.000000	 100.781750 
797.000000	 100.718188 
796.000000	 100.655674 
795.000000	 100.599837 
794.000000	 100.552582 
793.000000	 100.513815 
792.000000	 100.484895 
791.000000	 100.467109 
790.000000	 100.460481 
789.000000	 100.461173 
788.000000	 100.464177 
787.000000	 100.463724 
786.000000	 100.454640 
785.000000	 100.431752 
784.000000	 100.395059 
783.000000	 100.348377 
782.000000	 100.295710 
781.000000	 100.236320 
780.000000	 100.168180 
779.000000	 100.089502 
778.000000	 99.998331  
777.000000	 99.892425  
776.000000	 99.773669  
775.000000	 99.645853  
774.000000	 99.508857  
773.000000	 99.358201  
772.000000	 99.191832  
771.000000	 99.012064  
770.000000	 98.822569  
769.000000	 98.628640  
768.000000	 98.439025  
767.000000	 98.259973  
766.000000	 98.088765  
765.000000	 97.918891  
764.000000	 97.749137  
763.000000	 97.580075  
762.000000	 97.410011  
761.000000	 97.241926  
760.000000	 97.089767  
759.000000	 96.966409  
758.000000	 96.873617  
757.000000	 96.804618  
756.000000	 96.754574  
755.000000	 96.716570  
754.000000	 96.679735  
753.000000	 96.632170  
752.000000	 96.569013  
751.000000	 96.490812  
750.000000	 96.403336  
749.000000	 96.317434  
748.000000	 96.247410  
747.000000	 96.203160  
746.000000	 96.185684  
745.000000	 96.187281  
744.000000	 96.195983  
743.000000	 96.199965  
742.000000	 96.191215  
741.000000	 96.166276  
740.000000	 96.125650  
739.000000	 96.071290  
738.000000	 96.003985  
737.000000	 95.923185  
736.000000	 95.830678  
735.000000	 95.730924  
734.000000	 95.624136  
733.000000	 95.504570  
732.000000	 95.367574  
731.000000	 95.217561  
730.000000	 95.061540  
729.000000	 94.902706  
728.000000	 94.743824  
727.000000	 94.593262  
726.000000	 94.463181  
725.000000	 94.361495  
724.000000	 94.288849  
723.000000	 94.239926  
722.000000	 94.207072  
721.000000	 94.184923  
720.000000	 94.173097  
719.000000	 94.171261  
718.000000	 94.173049  
717.000000	 94.169044  
716.000000	 94.152951  
715.000000	 94.122195  
714.000000	 94.071221  
713.000000	 93.988800  
712.000000	 93.865752  
711.000000	 93.684267  
710.000000	 93.422913  
709.000000	 93.049168  
708.000000	 92.542052  
707.000000	 91.882729  
706.000000	 91.071319  
705.000000	 90.123224  
704.000000	 89.084935  
703.000000	 88.019347  
702.000000	 87.007570  
701.000000	 86.150360  
700.000000	 85.571360  
699.000000	 85.394430  
698.000000	 85.693669  
697.000000	 86.446690  
696.000000	 87.515425  
695.000000	 88.687586  
694.000000	 89.757275  
693.000000	 90.603590  
692.000000	 91.207909  
691.000000	 91.617560  
690.000000	 91.891741  
689.000000	 92.077660  
688.000000	 92.206263  
687.000000	 92.302107  
686.000000	 92.382264  
685.000000	 92.456364  
684.000000	 92.525124  
683.000000	 92.583942  
682.000000	 92.631793  
681.000000	 92.668199  
680.000000	 92.700719  
679.000000	 92.728853  
678.000000	 92.758536  
677.000000	 92.788052  
676.000000	 92.818284  
675.000000	 92.845153  
674.000000	 92.869758  
673.000000	 92.888402  
672.000000	 92.887544  
671.000000	 92.853307  
670.000000	 92.798233  
669.000000	 92.761635  
668.000000	 92.776608  
667.000000	 92.837309  
666.000000	 92.904400  
665.000000	 92.941260  
664.000000	 92.943620  
663.000000	 92.930507  
662.000000	 92.915940  
661.000000	 92.900300  
660.000000	 92.882847  
659.000000	 92.864632  
658.000000	 92.841100  
657.000000	 92.807364  
656.000000	 92.770290  
655.000000	 92.740797  
654.000000	 92.718029  
653.000000	 92.692732  
652.000000	 92.660880  
651.000000	 92.625737  
650.000000	 92.588615  
649.000000	 92.550373  
648.000000	 92.511940  
647.000000	 92.473936  
646.000000	 92.435383  
645.000000	 92.397689  
644.000000	 92.364501  
643.000000	 92.336297  
642.000000	 92.308282  
641.000000	 92.275810  
640.000000	 92.238521  
639.000000	 92.199063  
638.000000	 92.157769  
637.000000	 92.110753  
636.000000	 92.054438  
635.000000	 91.991257  
634.000000	 91.928744  
633.000000	 91.873025  
632.000000	 91.824507  
631.000000	 91.778731  
630.000000	 91.728115  
629.000000	 91.665840  
628.000000	 91.594099  
627.000000	 91.524672  
626.000000	 91.466546  
625.000000	 91.415786  
624.000000	 91.363501  
623.000000	 91.306662  
622.000000	 91.246151  
621.000000	 91.180229  
620.000000	 91.108036  
619.000000	 91.034698  
618.000000	 90.966963  
617.000000	 90.907382  
616.000000	 90.854620  
615.000000	 90.805649  
614.000000	 90.754723  
613.000000	 90.697264  
612.000000	 90.635442  
611.000000	 90.574693  
610.000000	 90.514636  
609.000000	 90.452790  
608.000000	 90.394186  
607.000000	 90.347290  
606.000000	 90.311121  
605.000000	 90.275931  
604.000000	 90.235686  
603.000000	 90.191531  
602.000000	 90.144920  
601.000000	 90.096187  
600.000000	 90.048480  
599.000000	 90.005421  
598.000000	 89.966297  
597.000000	 89.925837  
596.000000	 89.879608  
595.000000	 89.826583  
594.000000	 89.769601  
593.000000	 89.713287  
592.000000	 89.661979  
591.000000	 89.617562  
590.000000	 89.579319  
589.000000	 89.544463  
588.000000	 89.509320  
587.000000	 89.470672  
586.000000	 89.428377  
585.000000	 89.386200  
584.000000	 89.348697  
583.000000	 89.316511  
582.000000	 89.286065  
581.000000	 89.252638  
580.000000	 89.214205  
579.000000	 89.171624  
578.000000	 89.126300  
577.000000	 89.079189  
576.000000	 89.034676  
575.000000	 88.999915  
574.000000	 88.976144  
573.000000	 88.954162  
572.000000	 88.925242  
571.000000	 88.891458  
570.000000	 88.857221  
569.000000	 88.820910  
568.000000	 88.781428  
567.000000	 88.745760  
566.000000	 88.719034  
565.000000	 88.695096  
564.000000	 88.666081  
563.000000	 88.632559  
562.000000	 88.598990  
561.000000	 88.568210  
560.000000	 88.544297  
559.000000	 88.530683  
558.000000	 88.522720  
557.000000	 88.510918  
556.000000	 88.493061  
555.000000	 88.473439  
554.000000	 88.451147  
553.000000	 88.421392  
552.000000	 88.387393  
551.000000	 88.357329  
550.000000	 88.331389  
549.000000	 88.302326  
548.000000	 88.268685  
547.000000	 88.233900  
546.000000	 88.198781  
545.000000	 88.162684  
544.000000	 88.129496  
543.000000	 88.099050  
542.000000	 88.065671  
541.000000	 88.031935  
540.000000	 88.013005  
539.000000	 88.015151  
538.000000	 88.029360  
537.000000	 88.052487  
536.000000	 88.096141  
535.000000	 88.162136  
534.000000	 88.231778  
533.000000	 88.290095  
532.000000	 88.343548  
531.000000	 88.403868  
530.000000	 88.469767  
529.000000	 88.531088  
528.000000	 88.583540  
527.000000	 88.631892  
526.000000	 88.681483  
525.000000	 88.729143  
524.000000	 88.767433  
523.000000	 88.795685  
522.000000	 88.819122  
521.000000	 88.839745  
520.000000	 88.860917  
519.000000	 88.891291  
518.000000	 88.928723  
517.000000	 88.954138  
516.000000	 88.961648  
515.000000	 88.972878  
514.000000	 89.000558  
513.000000	 89.027118  
512.000000	 89.044165  
511.000000	 89.072203  
510.000000	 89.116859  
509.000000	 89.149188  
508.000000	 89.156556  
507.000000	 89.166235  
506.000000	 89.197778  
505.000000	 89.235472  
504.000000	 89.266490  
503.000000	 89.304113  
502.000000	 89.357852  
501.000000	 89.412784  
500.000000	 89.449954  
499.000000	 89.468836  
498.000000	 89.483237  
497.000000	 89.506769  
496.000000	 89.544010  
495.000000	 89.589142  
494.000000	 89.631605  
493.000000	 89.664959  
492.000000	 89.691305  
491.000000	 89.720106  
490.000000	 89.760494  
489.000000	 89.810395  
488.000000	 89.856529  
487.000000	 89.888978  
486.000000	 89.913082  
485.000000	 89.942169  
484.000000	 89.983534  
483.000000	 90.037035  
482.000000	 90.098786  
481.000000	 90.161776  
480.000000	 90.218782  
479.000000	 90.268802  
478.000000	 90.314555  
477.000000	 90.354752  
476.000000	 90.390348  
475.000000	 90.435051  
474.000000	 90.501523  
473.000000	 90.576696  
472.000000	 90.631937  
471.000000	 90.658068  
470.000000	 90.673828  
469.000000	 90.700650  
468.000000	 90.745592  
467.000000	 90.805435  
466.000000	 90.872097  
465.000000	 90.936255  
464.000000	 90.997409  
463.000000	 91.064667  
462.000000	 91.139459  
461.000000	 91.207170  
460.000000	 91.252756  
459.000000	 91.281032  
458.000000	 91.311264  
457.000000	 91.354465  
456.000000	 91.401743  
455.000000	 91.439104  
454.000000	 91.470432  
453.000000	 91.515326  
452.000000	 91.583514  
451.000000	 91.664385  
450.000000	 91.746068  
449.000000	 91.830062  
448.000000	 91.921544  
447.000000	 92.014312  
446.000000	 92.094254  
445.000000	 92.153263  
444.000000	 92.195963  
443.000000	 92.234349  
442.000000	 92.277073  
441.000000	 92.319154  
440.000000	 92.345547  
439.000000	 92.350745  
438.000000	 92.350220  
437.000000	 92.363858  
436.000000	 92.400741  
435.000000	 92.471456  
434.000000	 92.588639  
433.000000	 92.738556  
432.000000	 92.877697  
431.000000	 92.987203  
430.000000	 93.093705  
429.000000	 93.206143  
428.000000	 93.286752  
427.000000	 93.318700  
426.000000	 93.340277  
425.000000	 93.376994  
424.000000	 93.415904  
423.000000	 93.459916  
422.000000	 93.517518  
421.000000	 93.541288  
420.000000	 93.492031  
419.000000	 93.450212  
418.000000	 93.538808  
417.000000	 93.740701  
416.000000	 93.919157  
415.000000	 94.009613  
414.000000	 94.080734  
413.000000	 94.196367  
412.000000	 94.320940  
411.000000	 94.376611  
410.000000	 94.363331  
409.000000	 94.374799  
408.000000	 94.470381  
407.000000	 94.587612  
406.000000	 94.638371  
405.000000	 94.621992  
404.000000	 94.566416  
403.000000	 94.473981  
402.000000	 94.392967  
401.000000	 94.370460  
400.000000	 94.271063  

