PE IR       SPECTRUM    SPECTRUM    ASCII       PEDS        1.60        
  -1
UVLEN1.ASC
14/01/17
12:13:51.00
14/01/17
12:13:51.00
Admin

400.000000
8









2002,4.07    
MIRTGS : RIGHTBACK : INTERNAL 2
MIR : ON : INTERNAL 2
OPTKBR

0.200000
1
4.000000
STRONG
RATIO
SPECTRUM
UNLOCKED 256

DOUBLE
8
FORWARD
1
0
0


1.000000
RATIO


1
0
TRUE
41620
0
LEFT NOT FITTED RIGHT NOT FITTED 0
NONE
NONE
15600
21.200000
8.970000
41618
TRUE
1 0 8 72 0 0 0 0 

15798.013000






#HDR
-1
-1
#GR
CM-1
%T
0.00002384185791015625
0.0
4000.000000
-1.000000
3601
8
109.537124
38.635349
#DATA
4000.000000	109.520554 
3999.000000	109.524679 
3998.000000	109.525990 
3997.000000	109.524130 
3996.000000	109.520840 
3995.000000	109.514880 
3994.000000	109.506154 
3993.000000	109.499478 
3992.000000	109.499192 
3991.000000	109.502553 
3990.000000	109.504270 
3989.000000	109.504008 
3988.000000	109.506201 
3987.000000	109.513807 
3986.000000	109.525012 
3985.000000	109.534525 
3984.000000	109.537124 
3983.000000	109.530615 
3982.000000	109.516167 
3981.000000	109.499096 
3980.000000	109.487628 
3979.000000	109.486269 
3978.000000	109.489703 
3977.000000	109.489321 
3976.000000	109.483814 
3975.000000	109.477591 
3974.000000	109.470677 
3973.000000	109.460663 
3972.000000	109.451270 
3971.000000	109.448862 
3970.000000	109.451723 
3969.000000	109.453248 
3968.000000	109.451818 
3967.000000	109.450125 
3966.000000	109.447693 
3965.000000	109.441947 
3964.000000	109.433507 
3963.000000	109.423732 
3962.000000	109.412908 
3961.000000	109.404444 
3960.000000	109.403419 
3959.000000	109.407901 
3958.000000	109.408736 
3957.000000	109.402751 
3956.000000	109.396219 
3955.000000	109.394049 
3954.000000	109.394073 
3953.000000	109.394431 
3952.000000	109.396910 
3951.000000	109.399127 
3950.000000	109.393596 
3949.000000	109.377574 
3948.000000	109.358835 
3947.000000	109.348249 
3946.000000	109.348559 
3945.000000	109.352421 
3944.000000	109.350061 
3943.000000	109.339284 
3942.000000	109.327888 
3941.000000	109.325575 
3940.000000	109.334611 
3939.000000	109.349203 
3938.000000	109.362721 
3937.000000	109.373497 
3936.000000	109.382343 
3935.000000	109.387445 
3934.000000	109.382629 
3933.000000	109.364390 
3932.000000	109.339547 
3931.000000	109.321188 
3930.000000	109.315609 
3929.000000	109.318828 
3928.000000	109.326553 
3927.000000	109.337162 
3926.000000	109.344816 
3925.000000	109.342384 
3924.000000	109.334373 
3923.000000	109.332633 
3922.000000	109.338259 
3921.000000	109.341168 
3920.000000	109.335994 
3919.000000	109.327077 
3918.000000	109.317588 
3917.000000	109.307527 
3916.000000	109.300565 
3915.000000	109.301567 
3914.000000	109.308862 
3913.000000	109.317135 
3912.000000	109.324836 
3911.000000	109.332370 
3910.000000	109.339523 
3909.000000	109.347724 
3908.000000	109.359359 
3907.000000	109.367871 
3906.000000	109.358167 
3905.000000	109.322404 
3904.000000	109.271359 
3903.000000	109.225225 
3902.000000	109.196972 
3901.000000	109.186124 
3900.000000	109.186291 
3899.000000	109.193778 
3898.000000	109.208321 
3897.000000	109.228801 
3896.000000	109.252762 
3895.000000	109.278178 
3894.000000	109.299182 
3893.000000	109.303569 
3892.000000	109.283232 
3891.000000	109.249353 
3890.000000	109.228610 
3889.000000	109.239149 
3888.000000	109.271240 
3887.000000	109.296035 
3886.000000	109.292697 
3885.000000	109.266161 
3884.000000	109.237766 
3883.000000	109.219694 
3882.000000	109.205150 
3881.000000	109.183502 
3880.000000	109.159088 
3879.000000	109.150171 
3878.000000	109.169673 
3877.000000	109.206914 
3876.000000	109.234285 
3875.000000	109.233975 
3874.000000	109.215021 
3873.000000	109.197735 
3872.000000	109.185338 
3871.000000	109.163379 
3870.000000	109.126901 
3869.000000	109.095597 
3868.000000	109.094476 
3867.000000	109.122610 
3866.000000	109.149742 
3865.000000	109.149432 
3864.000000	109.128570 
3863.000000	109.113430 
3862.000000	109.115433 
3861.000000	109.127712 
3860.000000	109.146094 
3859.000000	109.170150 
3858.000000	109.189414 
3857.000000	109.191513 
3856.000000	109.171652 
3855.000000	109.120535 
3854.000000	109.032011 
3853.000000	108.938717 
3852.000000	108.902406 
3851.000000	108.943271 
3850.000000	109.014678 
3849.000000	109.068107 
3848.000000	109.104585 
3847.000000	109.144806 
3846.000000	109.182333 
3845.000000	109.192156 
3844.000000	109.167551 
3843.000000	109.128284 
3842.000000	109.096789 
3841.000000	109.075307 
3840.000000	109.052467 
3839.000000	109.027051 
3838.000000	109.011888 
3837.000000	109.015393 
3836.000000	109.030914 
3835.000000	109.046602 
3834.000000	109.054660 
3833.000000	109.051227 
3832.000000	109.039521 
3831.000000	109.030699 
3830.000000	109.035491 
3829.000000	109.051036 
3828.000000	109.061861 
3827.000000	109.056043 
3826.000000	109.037852 
3825.000000	109.024620 
3824.000000	109.027624 
3823.000000	109.036445 
3822.000000	109.024143 
3821.000000	108.981084 
3820.000000	108.938121 
3819.000000	108.932995 
3818.000000	108.957624 
3817.000000	108.968663 
3816.000000	108.949542 
3815.000000	108.929419 
3814.000000	108.936929 
3813.000000	108.966159 
3812.000000	108.997154 
3811.000000	109.023714 
3810.000000	109.048151 
3809.000000	109.060883 
3808.000000	109.044051 
3807.000000	108.997201 
3806.000000	108.949255 
3805.000000	108.932375 
3804.000000	108.944988 
3803.000000	108.950304 
3802.000000	108.919501 
3801.000000	108.870482 
3800.000000	108.848452 
3799.000000	108.869290 
3798.000000	108.901119 
3797.000000	108.911561 
3796.000000	108.906912 
3795.000000	108.910417 
3794.000000	108.926868 
3793.000000	108.947229 
3792.000000	108.966779 
3791.000000	108.983826 
3790.000000	108.993935 
3789.000000	108.995175 
3788.000000	108.990812 
3787.000000	108.982157 
3786.000000	108.966517 
3785.000000	108.944320 
3784.000000	108.925151 
3783.000000	108.923006 
3782.000000	108.941912 
3781.000000	108.967423 
3780.000000	108.978176 
3779.000000	108.965659 
3778.000000	108.941221 
3777.000000	108.923172 
3776.000000	108.919382 
3775.000000	108.924889 
3774.000000	108.934450 
3773.000000	108.946347 
3772.000000	108.953547 
3771.000000	108.942937 
3770.000000	108.912229 
3769.000000	108.879160 
3768.000000	108.864092 
3767.000000	108.867549 
3766.000000	108.871364 
3765.000000	108.863806 
3764.000000	108.856225 
3763.000000	108.865237 
3762.000000	108.884644 
3761.000000	108.889889 
3760.000000	108.870053 
3759.000000	108.840346 
3758.000000	108.821010 
3757.000000	108.818745 
3756.000000	108.830499 
3755.000000	108.847403 
3754.000000	108.851909 
3753.000000	108.824014 
3752.000000	108.759331 
3751.000000	108.679580 
3750.000000	108.622002 
3749.000000	108.615970 
3748.000000	108.656859 
3747.000000	108.702278 
3746.000000	108.706331 
3745.000000	108.666777 
3744.000000	108.626532 
3743.000000	108.626151 
3742.000000	108.665442 
3741.000000	108.717179 
3740.000000	108.763527 
3739.000000	108.804774 
3738.000000	108.835411 
3737.000000	108.830332 
3736.000000	108.771872 
3735.000000	108.683967 
3734.000000	108.614110 
3733.000000	108.581566 
3732.000000	108.569717 
3731.000000	108.564472 
3730.000000	108.571290 
3729.000000	108.591103 
3728.000000	108.607816 
3727.000000	108.608365 
3726.000000	108.596658 
3725.000000	108.584165 
3724.000000	108.578658 
3723.000000	108.581829 
3722.000000	108.590531 
3721.000000	108.601450 
3720.000000	108.615732 
3719.000000	108.636808 
3718.000000	108.661413 
3717.000000	108.683729 
3716.000000	108.706378 
3715.000000	108.732676 
3714.000000	108.744454 
3713.000000	108.711409 
3712.000000	108.632540 
3711.000000	108.547902 
3710.000000	108.497858 
3709.000000	108.488583 
3708.000000	108.503866 
3707.000000	108.528971 
3706.000000	108.554673 
3705.000000	108.573865 
3704.000000	108.582711 
3703.000000	108.578753 
3702.000000	108.559608 
3701.000000	108.532476 
3700.000000	108.517479 
3699.000000	108.527588 
3698.000000	108.551144 
3697.000000	108.568191 
3696.000000	108.574151 
3695.000000	108.575105 
3694.000000	108.573150 
3693.000000	108.569622 
3692.000000	108.570289 
3691.000000	108.571267 
3690.000000	108.553838 
3689.000000	108.509683 
3688.000000	108.456873 
3687.000000	108.422398 
3686.000000	108.415555 
3685.000000	108.424282 
3684.000000	108.433485 
3683.000000	108.440518 
3682.000000	108.447885 
3681.000000	108.449673 
3680.000000	108.440113 
3679.000000	108.428525 
3678.000000	108.420610 
3677.000000	108.394813 
3676.000000	108.330202 
3675.000000	108.252835 
3674.000000	108.215308 
3673.000000	108.230996 
3672.000000	108.258461 
3671.000000	108.254647 
3670.000000	108.220791 
3669.000000	108.190870 
3668.000000	108.191633 
3667.000000	108.219146 
3666.000000	108.249902 
3665.000000	108.268117 
3664.000000	108.277273 
3663.000000	108.286619 
3662.000000	108.297777 
3661.000000	108.307003 
3660.000000	108.315420 
3659.000000	108.324193 
3658.000000	108.319163 
3657.000000	108.281087 
3656.000000	108.217048 
3655.000000	108.164358 
3654.000000	108.153486 
3653.000000	108.182740 
3652.000000	108.227586 
3651.000000	108.250284 
3650.000000	108.209753 
3649.000000	108.103013 
3648.000000	107.991766 
3647.000000	107.946681 
3646.000000	107.971429 
3645.000000	108.015775 
3644.000000	108.046269 
3643.000000	108.065080 
3642.000000	108.074665 
3641.000000	108.070540 
3640.000000	108.060169 
3639.000000	108.054184 
3638.000000	108.050513 
3637.000000	108.044791 
3636.000000	108.041906 
3635.000000	108.039450 
3634.000000	108.026671 
3633.000000	108.011198 
3632.000000	108.009767 
3631.000000	108.004260 
3630.000000	107.954812 
3629.000000	107.866501 
3628.000000	107.799220 
3627.000000	107.794451 
3626.000000	107.831430 
3625.000000	107.869410 
3624.000000	107.897567 
3623.000000	107.927799 
3622.000000	107.958745 
3621.000000	107.966279 
3620.000000	107.931613 
3619.000000	107.870388 
3618.000000	107.822871 
3617.000000	107.814502 
3616.000000	107.834482 
3615.000000	107.853627 
3614.000000	107.851147 
3613.000000	107.827305 
3612.000000	107.800269 
3611.000000	107.787847 
3610.000000	107.785034 
3609.000000	107.770180 
3608.000000	107.739305 
3607.000000	107.715868 
3606.000000	107.719230 
3605.000000	107.740473 
3604.000000	107.759618 
3603.000000	107.768177 
3602.000000	107.765889 
3601.000000	107.752728 
3600.000000	107.732939 
3599.000000	107.714152 
3598.000000	107.696366 
3597.000000	107.672786 
3596.000000	107.643365 
3595.000000	107.615709 
3594.000000	107.594704 
3593.000000	107.581877 
3592.000000	107.579898 
3591.000000	107.585620 
3590.000000	107.583618 
3589.000000	107.559585 
3588.000000	107.517838 
3587.000000	107.478523 
3586.000000	107.457256 
3585.000000	107.454037 
3584.000000	107.458496 
3583.000000	107.459187 
3582.000000	107.448983 
3581.000000	107.426118 
3580.000000	107.392477 
3579.000000	107.353949 
3578.000000	107.318353 
3577.000000	107.288646 
3576.000000	107.261562 
3575.000000	107.233929 
3574.000000	107.206392 
3573.000000	107.180881 
3572.000000	107.160997 
3571.000000	107.151722 
3570.000000	107.148075 
3569.000000	107.126784 
3568.000000	107.068252 
3567.000000	106.984972 
3566.000000	106.913566 
3565.000000	106.877803 
3564.000000	106.872534 
3563.000000	106.879305 
3562.000000	106.881427 
3561.000000	106.867718 
3560.000000	106.837034 
3559.000000	106.799221 
3558.000000	106.764125 
3557.000000	106.733846 
3556.000000	106.708240 
3555.000000	106.689095 
3554.000000	106.672883 
3553.000000	106.649446 
3552.000000	106.616330 
3551.000000	106.584477 
3550.000000	106.564354 
3549.000000	106.554961 
3548.000000	106.549787 
3547.000000	106.543636 
3546.000000	106.529641 
3545.000000	106.500864 
3544.000000	106.460046 
3543.000000	106.416988 
3542.000000	106.376910 
3541.000000	106.339979 
3540.000000	106.309771 
3539.000000	106.291127 
3538.000000	106.279349 
3537.000000	106.261968 
3536.000000	106.231617 
3535.000000	106.191301 
3534.000000	106.149244 
3533.000000	106.112098 
3532.000000	106.082391 
3531.000000	106.057429 
3530.000000	106.031370 
3529.000000	106.000542 
3528.000000	105.969095 
3527.000000	105.948305 
3526.000000	105.946254 
3525.000000	105.955600 
3524.000000	105.955815 
3523.000000	105.931282 
3522.000000	105.885314 
3521.000000	105.834841 
3520.000000	105.794692 
3519.000000	105.768084 
3518.000000	105.750513 
3517.000000	105.737400 
3516.000000	105.727696 
3515.000000	105.719637 
3514.000000	105.706501 
3513.000000	105.679845 
3512.000000	105.636191 
3511.000000	105.580830 
3510.000000	105.525135 
3509.000000	105.479741 
3508.000000	105.450367 
3507.000000	105.437755 
3506.000000	105.439686 
3505.000000	105.450201 
3504.000000	105.457568 
3503.000000	105.449199 
3502.000000	105.420970 
3501.000000	105.382442 
3500.000000	105.350112 
3499.000000	105.331134 
3498.000000	105.316400 
3497.000000	105.290055 
3496.000000	105.248212 
3495.000000	105.200290 
3494.000000	105.152606 
3493.000000	105.101919 
3492.000000	105.047488 
3491.000000	104.998779 
3490.000000	104.965233 
3489.000000	104.945969 
3488.000000	104.931163 
3487.000000	104.906225 
3486.000000	104.858064 
3485.000000	104.786872 
3484.000000	104.713821 
3483.000000	104.666495 
3482.000000	104.654383 
3481.000000	104.660463 
3480.000000	104.655408 
3479.000000	104.619336 
3478.000000	104.551911 
3477.000000	104.467439 
3476.000000	104.383373 
3475.000000	104.311490 
3474.000000	104.258155 
3473.000000	104.226994 
3472.000000	104.218387 
3471.000000	104.226660 
3470.000000	104.238533 
3469.000000	104.237198 
3468.000000	104.210281 
3467.000000	104.155731 
3466.000000	104.082131 
3465.000000	104.003190 
3464.000000	103.935074 
3463.000000	103.892445 
3462.000000	103.878355 
3461.000000	103.877615 
3460.000000	103.867197 
3459.000000	103.837323 
3458.000000	103.798055 
3457.000000	103.766417 
3456.000000	103.750467 
3455.000000	103.746271 
3454.000000	103.745055 
3453.000000	103.741550 
3452.000000	103.737449 
3451.000000	103.738307 
3450.000000	103.746557 
3449.000000	103.759050 
3448.000000	103.768610 
3447.000000	103.770351 
3446.000000	103.765106 
3445.000000	103.758144 
3444.000000	103.754138 
3443.000000	103.753352 
3442.000000	103.753399 
3441.000000	103.755593 
3440.000000	103.768062 
3439.000000	103.796529 
3438.000000	103.832626 
3437.000000	103.857803 
3436.000000	103.861713 
3435.000000	103.848028 
3434.000000	103.824877 
3433.000000	103.799653 
3432.000000	103.781962 
3431.000000	103.776764 
3430.000000	103.774929 
3429.000000	103.761601 
3428.000000	103.734421 
3427.000000	103.702282 
3426.000000	103.672075 
3425.000000	103.646516 
3424.000000	103.630447 
3423.000000	103.627490 
3422.000000	103.633236 
3421.000000	103.639268 
3420.000000	103.641104 
3419.000000	103.639602 
3418.000000	103.638339 
3417.000000	103.641653 
3416.000000	103.653669 
3415.000000	103.674006 
3414.000000	103.696727 
3413.000000	103.713893 
3412.000000	103.722167 
3411.000000	103.725719 
3410.000000	103.730678 
3409.000000	103.737258 
3408.000000	103.741431 
3407.000000	103.742885 
3406.000000	103.747463 
3405.000000	103.760313 
3404.000000	103.782248 
3403.000000	103.811717 
3402.000000	103.844261 
3401.000000	103.871250 
3400.000000	103.884768 
3399.000000	103.885149 
3398.000000	103.880810 
3397.000000	103.880953 
3396.000000	103.890562 
3395.000000	103.909540 
3394.000000	103.932738 
3393.000000	103.952574 
3392.000000	103.964090 
3391.000000	103.967618 
3390.000000	103.965020 
3389.000000	103.958773 
3388.000000	103.954219 
3387.000000	103.957509 
3386.000000	103.968000 
3385.000000	103.980016 
3384.000000	103.993010 
3383.000000	104.012012 
3382.000000	104.037165 
3381.000000	104.061341 
3380.000000	104.080319 
3379.000000	104.096889 
3378.000000	104.113817 
3377.000000	104.129433 
3376.000000	104.142689 
3375.000000	104.155707 
3374.000000	104.172062 
3373.000000	104.195261 
3372.000000	104.227519 
3371.000000	104.265975 
3370.000000	104.302263 
3369.000000	104.329681 
3368.000000	104.348158 
3367.000000	104.359316 
3366.000000	104.362535 
3365.000000	104.359531 
3364.000000	104.358196 
3363.000000	104.366183 
3362.000000	104.382753 
3361.000000	104.400300 
3360.000000	104.411935 
3359.000000	104.416179 
3358.000000	104.416608 
3357.000000	104.419159 
3356.000000	104.428362 
3355.000000	104.445505 
3354.000000	104.470348 
3353.000000	104.502201 
3352.000000	104.537916 
3351.000000	104.569387 
3350.000000	104.587316 
3349.000000	104.588961 
3348.000000	104.582619 
3347.000000	104.582214 
3346.000000	104.595685 
3345.000000	104.618549 
3344.000000	104.640960 
3343.000000	104.657864 
3342.000000	104.670810 
3341.000000	104.683279 
3340.000000	104.697394 
3339.000000	104.713392 
3338.000000	104.727172 
3337.000000	104.731774 
3336.000000	104.725956 
3335.000000	104.716825 
3334.000000	104.712796 
3333.000000	104.716134 
3332.000000	104.725933 
3331.000000	104.741597 
3330.000000	104.762172 
3329.000000	104.786849 
3328.000000	104.817438 
3327.000000	104.852938 
3326.000000	104.883027 
3325.000000	104.896068 
3324.000000	104.893755 
3323.000000	104.888081 
3322.000000	104.885196 
3321.000000	104.882907 
3320.000000	104.880547 
3319.000000	104.881811 
3318.000000	104.887795 
3317.000000	104.896831 
3316.000000	104.908943 
3315.000000	104.924631 
3314.000000	104.941320 
3313.000000	104.957079 
3312.000000	104.974126 
3311.000000	104.996228 
3310.000000	105.023002 
3309.000000	105.049943 
3308.000000	105.072593 
3307.000000	105.089664 
3306.000000	105.101680 
3305.000000	105.107522 
3304.000000	105.105018 
3303.000000	105.095696 
3302.000000	105.084943 
3301.000000	105.077886 
3300.000000	105.076813 
3299.000000	105.083131 
3298.000000	105.097627 
3297.000000	105.117678 
3296.000000	105.137634 
3295.000000	105.153870 
3294.000000	105.165719 
3293.000000	105.172967 
3292.000000	105.174016 
3291.000000	105.167937 
3290.000000	105.155897 
3289.000000	105.142235 
3288.000000	105.133771 
3287.000000	105.136227 
3286.000000	105.148553 
3285.000000	105.163598 
3284.000000	105.175471 
3283.000000	105.184459 
3282.000000	105.192613 
3281.000000	105.199623 
3280.000000	105.206894 
3279.000000	105.219388 
3278.000000	105.240345 
3277.000000	105.266690 
3276.000000	105.293273 
3275.000000	105.316925 
3274.000000	105.335378 
3273.000000	105.347561 
3272.000000	105.356121 
3271.000000	105.364084 
3270.000000	105.369281 
3269.000000	105.367827 
3268.000000	105.361413 
3267.000000	105.356073 
3266.000000	105.354022 
3265.000000	105.353593 
3264.000000	105.354833 
3263.000000	105.359697 
3262.000000	105.367255 
3261.000000	105.375337 
3260.000000	105.384588 
3259.000000	105.397963 
3258.000000	105.416321 
3257.000000	105.436515 
3256.000000	105.453133 
3255.000000	105.460405 
3254.000000	105.456447 
3253.000000	105.446600 
3252.000000	105.440163 
3251.000000	105.441856 
3250.000000	105.450081 
3249.000000	105.462431 
3248.000000	105.477762 
3247.000000	105.491685 
3246.000000	105.497169 
3245.000000	105.491447 
3244.000000	105.479764 
3243.000000	105.470299 
3242.000000	105.467009 
3241.000000	105.468678 
3240.000000	105.473709 
3239.000000	105.482888 
3238.000000	105.496621 
3237.000000	105.511760 
3236.000000	105.524992 
3235.000000	105.536818 
3234.000000	105.546879 
3233.000000	105.549716 
3232.000000	105.541443 
3231.000000	105.526471 
3230.000000	105.512380 
3229.000000	105.502033 
3228.000000	105.494666 
3227.000000	105.490016 
3226.000000	105.486798 
3225.000000	105.482125 
3224.000000	105.476331 
3223.000000	105.474162 
3222.000000	105.478501 
3221.000000	105.486226 
3220.000000	105.492019 
3219.000000	105.492854 
3218.000000	105.488324 
3217.000000	105.480742 
3216.000000	105.475115 
3215.000000	105.473756 
3214.000000	105.472087 
3213.000000	105.465054 
3212.000000	105.455470 
3211.000000	105.449557 
3210.000000	105.447149 
3209.000000	105.444073 
3208.000000	105.440187 
3207.000000	105.436897 
3206.000000	105.431699 
3205.000000	105.422425 
3204.000000	105.412721 
3203.000000	105.405926 
3202.000000	105.399227 
3201.000000	105.388998 
3200.000000	105.377221 
3199.000000	105.367708 
3198.000000	105.361056 
3197.000000	105.355429 
3196.000000	105.350470 
3195.000000	105.347204 
3194.000000	105.344843 
3193.000000	105.340790 
3192.000000	105.333518 
3191.000000	105.325365 
3190.000000	105.319857 
3189.000000	105.316638 
3188.000000	105.312800 
3187.000000	105.307626 
3186.000000	105.303001 
3185.000000	105.298519 
3184.000000	105.291652 
3183.000000	105.282187 
3182.000000	105.272603 
3181.000000	105.264210 
3180.000000	105.256724 
3179.000000	105.249786 
3178.000000	105.242896 
3177.000000	105.235147 
3176.000000	105.227470 
3175.000000	105.222487 
3174.000000	105.219960 
3173.000000	105.216121 
3172.000000	105.209732 
3171.000000	105.203866 
3170.000000	105.199265 
3169.000000	105.192136 
3168.000000	105.180573 
3167.000000	105.168104 
3166.000000	105.157709 
3165.000000	105.149459 
3164.000000	105.144667 
3163.000000	105.144882 
3162.000000	105.146932 
3161.000000	105.145740 
3160.000000	105.142378 
3159.000000	105.141973 
3158.000000	105.145478 
3157.000000	105.150508 
3156.000000	105.158209 
3155.000000	105.170798 
3154.000000	105.184912 
3153.000000	105.192971 
3152.000000	105.190825 
3151.000000	105.179071 
3150.000000	105.160498 
3149.000000	105.139899 
3148.000000	105.123162 
3147.000000	105.112552 
3146.000000	105.104732 
3145.000000	105.096483 
3144.000000	105.088949 
3143.000000	105.085611 
3142.000000	105.087471 
3141.000000	105.092644 
3140.000000	105.096960 
3139.000000	105.095362 
3138.000000	105.084586 
3137.000000	105.065989 
3136.000000	105.044722 
3135.000000	105.025529 
3134.000000	105.009841 
3133.000000	104.996633 
3132.000000	104.986000 
3131.000000	104.979372 
3130.000000	104.975438 
3129.000000	104.967403 
3128.000000	104.950046 
3127.000000	104.926300 
3126.000000	104.903841 
3125.000000	104.886412 
3124.000000	104.874062 
3123.000000	104.866075 
3122.000000	104.860234 
3121.000000	104.850292 
3120.000000	104.833698 
3119.000000	104.813647 
3118.000000	104.792308 
3117.000000	104.765796 
3116.000000	104.731440 
3115.000000	104.690790 
3114.000000	104.643559 
3113.000000	104.587268 
3112.000000	104.525399 
3111.000000	104.465508 
3110.000000	104.406619 
3109.000000	104.339861 
3108.000000	104.262685 
3107.000000	104.183053 
3106.000000	104.109501 
3105.000000	104.047822 
3104.000000	104.004740 
3103.000000	103.986191 
3102.000000	103.987407 
3101.000000	103.996276 
3100.000000	104.001116 
3099.000000	103.995966 
3098.000000	103.977322 
3097.000000	103.945374 
3096.000000	103.903937 
3095.000000	103.854155 
3094.000000	103.792881 
3093.000000	103.715276 
3092.000000	103.619408 
3091.000000	103.500318 
3090.000000	103.350400 
3089.000000	103.165483 
3088.000000	102.953433 
3087.000000	102.731966 
3086.000000	102.523159 
3085.000000	102.348041 
3084.000000	102.224230 
3083.000000	102.162647 
3082.000000	102.162623 
3081.000000	102.209925 
3080.000000	102.281141 
3079.000000	102.352881 
3078.000000	102.406644 
3077.000000	102.429890 
3076.000000	102.415966 
3075.000000	102.366971 
3074.000000	102.288818 
3073.000000	102.188158 
3072.000000	102.067017 
3071.000000	101.927518 
3070.000000	101.766157 
3069.000000	101.578593 
3068.000000	101.361942 
3067.000000	101.121926 
3066.000000	100.867152 
3065.000000	100.608563 
3064.000000	100.364661 
3063.000000	100.161027 
3062.000000	100.021123 
3061.000000	99.956321  
3060.000000	99.969625  
3059.000000	100.055074 
3058.000000	100.194406 
3057.000000	100.358223 
3056.000000	100.519132 
3055.000000	100.659561 
3054.000000	100.770282 
3053.000000	100.848746 
3052.000000	100.898408 
3051.000000	100.924158 
3050.000000	100.923848 
3049.000000	100.894474 
3048.000000	100.836229 
3047.000000	100.755476 
3046.000000	100.650238 
3045.000000	100.518608 
3044.000000	100.353837 
3043.000000	100.157499 
3042.000000	99.923706  
3041.000000	99.651384  
3040.000000	99.332976  
3039.000000	98.970270  
3038.000000	98.559165  
3037.000000	98.095011  
3036.000000	97.561645  
3035.000000	96.949887  
3034.000000	96.251988  
3033.000000	95.468139  
3032.000000	94.602203  
3031.000000	93.680286  
3030.000000	92.741155  
3029.000000	91.823554  
3028.000000	90.949416  
3027.000000	90.132212  
3026.000000	89.372014  
3025.000000	88.650846  
3024.000000	87.925577  
3023.000000	87.147784  
3022.000000	86.266899  
3021.000000	85.252618  
3020.000000	84.090280  
3019.000000	82.806468  
3018.000000	81.439948  
3017.000000	80.057764  
3016.000000	78.727293  
3015.000000	77.540087  
3014.000000	76.567173  
3013.000000	75.871396  
3012.000000	75.485467  
3011.000000	75.437307  
3010.000000	75.722646  
3009.000000	76.315617  
3008.000000	77.165699  
3007.000000	78.223085  
3006.000000	79.431295  
3005.000000	80.731511  
3004.000000	82.058095  
3003.000000	83.354616  
3002.000000	84.578633  
3001.000000	85.707521  
3000.000000	86.728119  
2999.000000	87.631201  
2998.000000	88.406801  
2997.000000	89.053726  
2996.000000	89.577579  
2995.000000	89.994096  
2994.000000	90.311861  
2993.000000	90.543293  
2992.000000	90.689539  
2991.000000	90.764570  
2990.000000	90.768098  
2989.000000	90.710878  
2988.000000	90.582203  
2987.000000	90.387892  
2986.000000	90.118074  
2985.000000	89.777541  
2984.000000	89.351797  
2983.000000	88.839530  
2982.000000	88.229990  
2981.000000	87.524056  
2980.000000	86.716556  
2979.000000	85.816407  
2978.000000	84.835219  
2977.000000	83.788442  
2976.000000	82.686877  
2975.000000	81.547355  
2974.000000	80.390596  
2973.000000	79.235553  
2972.000000	78.095746  
2971.000000	76.983380  
2970.000000	75.910067  
2969.000000	74.884939  
2968.000000	73.919701  
2967.000000	73.036384  
2966.000000	72.261524  
2965.000000	71.616005  
2964.000000	71.110510  
2963.000000	70.750188  
2962.000000	70.523333  
2961.000000	70.400071  
2960.000000	70.333266  
2959.000000	70.275759  
2958.000000	70.178055  
2957.000000	69.997453  
2956.000000	69.707155  
2955.000000	69.308233  
2954.000000	68.823480  
2953.000000	68.287014  
2952.000000	67.737793  
2951.000000	67.207551  
2950.000000	66.710925  
2949.000000	66.235470  
2948.000000	65.750145  
2947.000000	65.213704  
2946.000000	64.588284  
2945.000000	63.843321  
2944.000000	62.961888  
2943.000000	61.942672  
2942.000000	60.804224  
2941.000000	59.569501  
2940.000000	58.262681  
2939.000000	56.907820  
2938.000000	55.550551  
2937.000000	54.236674  
2936.000000	53.014039  
2935.000000	51.919746  
2934.000000	51.004195  
2933.000000	50.292730  
2932.000000	49.793958  
2931.000000	49.492740  
2930.000000	49.389410  
2929.000000	49.464154  
2928.000000	49.695611  
2927.000000	50.057911  
2926.000000	50.556325  
2925.000000	51.184320  
2924.000000	51.930785  
2923.000000	52.777457  
2922.000000	53.722023  
2921.000000	54.751062  
2920.000000	55.844593  
2919.000000	56.983995  
2918.000000	58.159160  
2917.000000	59.352946  
2916.000000	60.543155  
2915.000000	61.717128  
2914.000000	62.869453  
2913.000000	63.992047  
2912.000000	65.074324  
2911.000000	66.116189  
2910.000000	67.123055  
2909.000000	68.095755  
2908.000000	69.034743  
2907.000000	69.944858  
2906.000000	70.834898  
2905.000000	71.703696  
2904.000000	72.550535  
2903.000000	73.373103  
2902.000000	74.175167  
2901.000000	74.953269  
2900.000000	75.709295  
2899.000000	76.442432  
2898.000000	77.155208  
2897.000000	77.841281  
2896.000000	78.495311  
2895.000000	79.112577  
2894.000000	79.698204  
2893.000000	80.258035  
2892.000000	80.793142  
2891.000000	81.297802  
2890.000000	81.765913  
2889.000000	82.193994  
2888.000000	82.575201  
2887.000000	82.902145  
2886.000000	83.165836  
2885.000000	83.360695  
2884.000000	83.474731  
2883.000000	83.502435  
2882.000000	83.437943  
2881.000000	83.284091  
2880.000000	83.035016  
2879.000000	82.704472  
2878.000000	82.315063  
2877.000000	81.913876  
2876.000000	81.534171  
2875.000000	81.212520  
2874.000000	80.957841  
2873.000000	80.766534  
2872.000000	80.601453  
2871.000000	80.424427  
2870.000000	80.191373  
2869.000000	79.863214  
2868.000000	79.401111  
2867.000000	78.783035  
2866.000000	78.002762  
2865.000000	77.065658  
2864.000000	75.982618  
2863.000000	74.779438  
2862.000000	73.492765  
2861.000000	72.172260  
2860.000000	70.874834  
2859.000000	69.679880  
2858.000000	68.673634  
2857.000000	67.946219  
2856.000000	67.567300  
2855.000000	67.591142  
2854.000000	68.030691  
2853.000000	68.867087  
2852.000000	70.040678  
2851.000000	71.485376  
2850.000000	73.120164  
2849.000000	74.876403  
2848.000000	76.679396  
2847.000000	78.476810  
2846.000000	80.217456  
2845.000000	81.876325  
2844.000000	83.433437  
2843.000000	84.889888  
2842.000000	86.245369  
2841.000000	87.506031  
2840.000000	88.670754  
2839.000000	89.739155  
2838.000000	90.706801  
2837.000000	91.575765  
2836.000000	92.352533  
2835.000000	93.051147  
2834.000000	93.682026  
2833.000000	94.257521  
2832.000000	94.785213  
2831.000000	95.277023  
2830.000000	95.734381  
2829.000000	96.162033  
2828.000000	96.557641  
2827.000000	96.927189  
2826.000000	97.269010  
2825.000000	97.588491  
2824.000000	97.884058  
2823.000000	98.159980  
2822.000000	98.413896  
2821.000000	98.651337  
2820.000000	98.875355  
2819.000000	99.090361  
2818.000000	99.293565  
2817.000000	99.486517  
2816.000000	99.671673  
2815.000000	99.852800  
2814.000000	100.027990 
2813.000000	100.195145 
2812.000000	100.353407 
2811.000000	100.503730 
2810.000000	100.645327 
2809.000000	100.775742 
2808.000000	100.894141 
2807.000000	101.004028 
2806.000000	101.110076 
2805.000000	101.212334 
2804.000000	101.308679 
2803.000000	101.399135 
2802.000000	101.486587 
2801.000000	101.570487 
2800.000000	101.649618 
2799.000000	101.723122 
2798.000000	101.790046 
2797.000000	101.846432 
2796.000000	101.893424 
2795.000000	101.937842 
2794.000000	101.985073 
2793.000000	102.032566 
2792.000000	102.078866 
2791.000000	102.126932 
2790.000000	102.176499 
2789.000000	102.220201 
2788.000000	102.253913 
2787.000000	102.281761 
2786.000000	102.308511 
2785.000000	102.335190 
2784.000000	102.363419 
2783.000000	102.395415 
2782.000000	102.428531 
2781.000000	102.456760 
2780.000000	102.479624 
2779.000000	102.502226 
2778.000000	102.527523 
2777.000000	102.554416 
2776.000000	102.581453 
2775.000000	102.606940 
2774.000000	102.626657 
2773.000000	102.638006 
2772.000000	102.644014 
2771.000000	102.649998 
2770.000000	102.657556 
2769.000000	102.666115 
2768.000000	102.676057 
2767.000000	102.688574 
2766.000000	102.702355 
2765.000000	102.715611 
2764.000000	102.727246 
2763.000000	102.737522 
2762.000000	102.746534 
2761.000000	102.754092 
2760.000000	102.760887 
2759.000000	102.768564 
2758.000000	102.777647 
2757.000000	102.785682 
2756.000000	102.789092 
2755.000000	102.788066 
2754.000000	102.786827 
2753.000000	102.788591 
2752.000000	102.793884 
2751.000000	102.801370 
2750.000000	102.808403 
2749.000000	102.810287 
2748.000000	102.804398 
2747.000000	102.793192 
2746.000000	102.780747 
2745.000000	102.767777 
2744.000000	102.754259 
2743.000000	102.742671 
2742.000000	102.734971 
2741.000000	102.729392 
2740.000000	102.724480 
2739.000000	102.721333 
2738.000000	102.719020 
2737.000000	102.712178 
2736.000000	102.697849 
2735.000000	102.679014 
2734.000000	102.659296 
2733.000000	102.638649 
2732.000000	102.617669 
2731.000000	102.599906 
2730.000000	102.587175 
2729.000000	102.579069 
2728.000000	102.575755 
2727.000000	102.576279 
2726.000000	102.575087 
2725.000000	102.567172 
2724.000000	102.555918 
2723.000000	102.547693 
2722.000000	102.541804 
2721.000000	102.533388 
2720.000000	102.523446 
2719.000000	102.518224 
2718.000000	102.520966 
2717.000000	102.529048 
2716.000000	102.539110 
2715.000000	102.548336 
2714.000000	102.555036 
2713.000000	102.559280 
2712.000000	102.563142 
2711.000000	102.567958 
2710.000000	102.572536 
2709.000000	102.574801 
2708.000000	102.574133 
2707.000000	102.571821 
2706.000000	102.569484 
2705.000000	102.567791 
2704.000000	102.566885 
2703.000000	102.567768 
2702.000000	102.570939 
2701.000000	102.574539 
2700.000000	102.575755 
2699.000000	102.574634 
2698.000000	102.573180 
2697.000000	102.571463 
2696.000000	102.568173 
2695.000000	102.563714 
2694.000000	102.559566 
2693.000000	102.554893 
2692.000000	102.549076 
2691.000000	102.544283 
2690.000000	102.541470 
2689.000000	102.537393 
2688.000000	102.531194 
2687.000000	102.527642 
2686.000000	102.529668 
2685.000000	102.533531 
2684.000000	102.537059 
2683.000000	102.544641 
2682.000000	102.558302 
2681.000000	102.572321 
2680.000000	102.581167 
2679.000000	102.585268 
2678.000000	102.585554 
2677.000000	102.581644 
2676.000000	102.577304 
2675.000000	102.578926 
2674.000000	102.585911 
2673.000000	102.591180 
2672.000000	102.590942 
2671.000000	102.588248 
2670.000000	102.586579 
2669.000000	102.586603 
2668.000000	102.588748 
2667.000000	102.592897 
2666.000000	102.596473 
2665.000000	102.596759 
2664.000000	102.594375 
2663.000000	102.591776 
2662.000000	102.589249 
2661.000000	102.585959 
2660.000000	102.582001 
2659.000000	102.578639 
2658.000000	102.576231 
2657.000000	102.574014 
2656.000000	102.571010 
2655.000000	102.567076 
2654.000000	102.562952 
2653.000000	102.559161 
2652.000000	102.555847 
2651.000000	102.553606 
2650.000000	102.552390 
2649.000000	102.550268 
2648.000000	102.544474 
2647.000000	102.534890 
2646.000000	102.524471 
2645.000000	102.515983 
2644.000000	102.510547 
2643.000000	102.508950 
2642.000000	102.510476 
2641.000000	102.511453 
2640.000000	102.509498 
2639.000000	102.506542 
2638.000000	102.503991 
2637.000000	102.498245 
2636.000000	102.487015 
2635.000000	102.474975 
2634.000000	102.467489 
2633.000000	102.462911 
2632.000000	102.459168 
2631.000000	102.459144 
2630.000000	102.464532 
2629.000000	102.470850 
2628.000000	102.475070 
2627.000000	102.479672 
2626.000000	102.484989 
2625.000000	102.485966 
2624.000000	102.481031 
2623.000000	102.475094 
2622.000000	102.471399 
2621.000000	102.467775 
2620.000000	102.463006 
2619.000000	102.458715 
2618.000000	102.454876 
2617.000000	102.449083 
2616.000000	102.441525 
2615.000000	102.434229 
2614.000000	102.427220 
2613.000000	102.418875 
2612.000000	102.409744 
2611.000000	102.401185 
2610.000000	102.391982 
2609.000000	102.380204 
2608.000000	102.366876 
2607.000000	102.354693 
2606.000000	102.345180 
2605.000000	102.337694 
2604.000000	102.331995 
2603.000000	102.328467 
2602.000000	102.327013 
2601.000000	102.326250 
2600.000000	102.324557 
2599.000000	102.321982 
2598.000000	102.320194 
2597.000000	102.319788 
2596.000000	102.319955 
2595.000000	102.320837 
2594.000000	102.322816 
2593.000000	102.323865 
2592.000000	102.321410 
2591.000000	102.317285 
2590.000000	102.314758 
2589.000000	102.312779 
2588.000000	102.308082 
2587.000000	102.302074 
2586.000000	102.298378 
2585.000000	102.295851 
2584.000000	102.291488 
2583.000000	102.287030 
2582.000000	102.285599 
2581.000000	102.285552 
2580.000000	102.284169 
2579.000000	102.283024 
2578.000000	102.283573 
2577.000000	102.283167 
2576.000000	102.279973 
2575.000000	102.276515 
2574.000000	102.273583 
2573.000000	102.267479 
2572.000000	102.257347 
2571.000000	102.247786 
2570.000000	102.240943 
2569.000000	102.233576 
2568.000000	102.224707 
2567.000000	102.217626 
2566.000000	102.213120 
2565.000000	102.208375 
2564.000000	102.203202 
2563.000000	102.199983 
2562.000000	102.197694 
2561.000000	102.192282 
2560.000000	102.182769 
2559.000000	102.171826 
2558.000000	102.160573 
2557.000000	102.148413 
2556.000000	102.136254 
2555.000000	102.126145 
2554.000000	102.117919 
2553.000000	102.109622 
2552.000000	102.099776 
2551.000000	102.089357 
2550.000000	102.079820 
2549.000000	102.071332 
2548.000000	102.062869 
2547.000000	102.054691 
2546.000000	102.048683 
2545.000000	102.045464 
2544.000000	102.043199 
2543.000000	102.040815 
2542.000000	102.038359 
2541.000000	102.034401 
2540.000000	102.026534 
2539.000000	102.015805 
2538.000000	102.005434 
2537.000000	101.995682 
2536.000000	101.984548 
2535.000000	101.973128 
2534.000000	101.964569 
2533.000000	101.958537 
2532.000000	101.952290 
2531.000000	101.945877 
2530.000000	101.940035 
2529.000000	101.932072 
2528.000000	101.920390 
2527.000000	101.909422 
2526.000000	101.902627 
2525.000000	101.896905 
2524.000000	101.888966 
2523.000000	101.881456 
2522.000000	101.876091 
2521.000000	101.868772 
2520.000000	101.857471 
2519.000000	101.846957 
2518.000000	101.840066 
2517.000000	101.833152 
2516.000000	101.824259 
2515.000000	101.816940 
2514.000000	101.813149 
2513.000000	101.809263 
2512.000000	101.802062 
2511.000000	101.792883 
2510.000000	101.783895 
2509.000000	101.775622 
2508.000000	101.768255 
2507.000000	101.761817 
2506.000000	101.754927 
2505.000000	101.746678 
2504.000000	101.738500 
2503.000000	101.731824 
2502.000000	101.725172 
2501.000000	101.716423 
2500.000000	101.706647 
2499.000000	101.698589 
2498.000000	101.692962 
2497.000000	101.687860 
2496.000000	101.681184 
2495.000000	101.672697 
2494.000000	101.663756 
2493.000000	101.655626 
2492.000000	101.648497 
2491.000000	101.642847 
2490.000000	101.638793 
2489.000000	101.634764 
2488.000000	101.628875 
2487.000000	101.622295 
2486.000000	101.617836 
2485.000000	101.614236 
2484.000000	101.607894 
2483.000000	101.599335 
2482.000000	101.592850 
2481.000000	101.589059 
2480.000000	101.584911 
2479.000000	101.579594 
2478.000000	101.574134 
2477.000000	101.566672 
2476.000000	101.556134 
2475.000000	101.546764 
2474.000000	101.541733 
2473.000000	101.536965 
2472.000000	101.528024 
2471.000000	101.518201 
2470.000000	101.511383 
2469.000000	101.504468 
2468.000000	101.493453 
2467.000000	101.480197 
2466.000000	101.467895 
2465.000000	101.455092 
2464.000000	101.441550 
2463.000000	101.430749 
2462.000000	101.423835 
2461.000000	101.417160 
2460.000000	101.409053 
2459.000000	101.401686 
2458.000000	101.395225 
2457.000000	101.386880 
2456.000000	101.376128 
2455.000000	101.365780 
2454.000000	101.356720 
2453.000000	101.347160 
2452.000000	101.336503 
2451.000000	101.325917 
2450.000000	101.315379 
2449.000000	101.303911 
2448.000000	101.292037 
2447.000000	101.281285 
2446.000000	101.271677 
2445.000000	101.261878 
2444.000000	101.251220 
2443.000000	101.240992 
2442.000000	101.233077 
2441.000000	101.227402 
2440.000000	101.221680 
2439.000000	101.214408 
2438.000000	101.206421 
2437.000000	101.197648 
2436.000000	101.186919 
2435.000000	101.175284 
2434.000000	101.165866 
2433.000000	101.159405 
2432.000000	101.153230 
2431.000000	101.146650 
2430.000000	101.140832 
2429.000000	101.134705 
2428.000000	101.126003 
2427.000000	101.116895 
2426.000000	101.111245 
2425.000000	101.107478 
2424.000000	101.101350 
2423.000000	101.093506 
2422.000000	101.086807 
2421.000000	101.079273 
2420.000000	101.067829 
2419.000000	101.055049 
2418.000000	101.044750 
2417.000000	101.035571 
2416.000000	101.025009 
2415.000000	101.015019 
2414.000000	101.007413 
2413.000000	100.999283 
2412.000000	100.988817 
2411.000000	100.978541 
2410.000000	100.969195 
2409.000000	100.957536 
2408.000000	100.943136 
2407.000000	100.930047 
2406.000000	100.918912 
2405.000000	100.905632 
2404.000000	100.889587 
2403.000000	100.875210 
2402.000000	100.864052 
2401.000000	100.852966 
2400.000000	100.840139 
2399.000000	100.827169 
2398.000000	100.814461 
2397.000000	100.800347 
2396.000000	100.784969 
2395.000000	100.770306 
2394.000000	100.756645 
2393.000000	100.743389 
2392.000000	100.730228 
2391.000000	100.718784 
2390.000000	100.709056 
2389.000000	100.699114 
2388.000000	100.684762 
2387.000000	100.664138 
2386.000000	100.636577 
2385.000000	100.601172 
2384.000000	100.554490 
2383.000000	100.497913 
2382.000000	100.435924 
2381.000000	100.369381 
2380.000000	100.294065 
2379.000000	100.210428 
2378.000000	100.122499 
2377.000000	100.028300 
2376.000000	99.922251  
2375.000000	99.807858  
2374.000000	99.690580  
2373.000000	99.561595  
2372.000000	99.408030  
2371.000000	99.238991  
2370.000000	99.074649  
2369.000000	98.918581  
2368.000000	98.761677  
2367.000000	98.607158  
2366.000000	98.457336  
2365.000000	98.304677  
2364.000000	98.157286  
2363.000000	98.053216  
2362.000000	98.007011  
2361.000000	97.984147  
2360.000000	97.959470  
2359.000000	97.961425  
2358.000000	98.023509  
2357.000000	98.133802  
2356.000000	98.265600  
2355.000000	98.418331  
2354.000000	98.598837  
2353.000000	98.795199  
2352.000000	98.987913  
2351.000000	99.163651  
2350.000000	99.302649  
2349.000000	99.372220  
2348.000000	99.345660  
2347.000000	99.225616  
2346.000000	99.048089  
2345.000000	98.866748  
2344.000000	98.725581  
2343.000000	98.638939  
2342.000000	98.594141  
2341.000000	98.572254  
2340.000000	98.562669  
2339.000000	98.565959  
2338.000000	98.583579  
2337.000000	98.611998  
2336.000000	98.643183  
2335.000000	98.673152  
2334.000000	98.701477  
2333.000000	98.725867  
2332.000000	98.743033  
2331.000000	98.758721  
2330.000000	98.787856  
2329.000000	98.834848  
2328.000000	98.889207  
2327.000000	98.941183  
2326.000000	98.992776  
2325.000000	99.045395  
2324.000000	99.094891  
2323.000000	99.143385  
2322.000000	99.198651  
2321.000000	99.258637  
2320.000000	99.313545  
2319.000000	99.362969  
2318.000000	99.414229  
2317.000000	99.464368  
2316.000000	99.502587  
2315.000000	99.527215  
2314.000000	99.544501  
2313.000000	99.556159  
2312.000000	99.565291  
2311.000000	99.584221  
2310.000000	99.621367  
2309.000000	99.666905  
2308.000000	99.708580  
2307.000000	99.747014  
2306.000000	99.785470  
2305.000000	99.817013  
2304.000000	99.836969  
2303.000000	99.852991  
2302.000000	99.872279  
2301.000000	99.890542  
2300.000000	99.902653  
2299.000000	99.911713  
2298.000000	99.921798  
2297.000000	99.932146  
2296.000000	99.942779  
2295.000000	99.956512  
2294.000000	99.972414  
2293.000000	99.985861  
2292.000000	99.995803  
2291.000000	100.005602 
2290.000000	100.016713 
2289.000000	100.027108 
2288.000000	100.035285 
2287.000000	100.042653 
2286.000000	100.051283 
2285.000000	100.060319 
2284.000000	100.065827 
2283.000000	100.065660 
2282.000000	100.061655 
2281.000000	100.056624 
2280.000000	100.050950 
2279.000000	100.044751 
2278.000000	100.040006 
2277.000000	100.037264 
2276.000000	100.034070 
2275.000000	100.029587 
2274.000000	100.026130 
2273.000000	100.023627 
2272.000000	100.018787 
2271.000000	100.012540 
2270.000000	100.009465 
2269.000000	100.008845 
2268.000000	100.005030 
2267.000000	99.997496  
2266.000000	99.991154  
2265.000000	99.987173  
2264.000000	99.982380  
2263.000000	99.977564  
2262.000000	99.976396  
2261.000000	99.976873  
2260.000000	99.974226  
2259.000000	99.969553  
2258.000000	99.966549  
2257.000000	99.963593  
2256.000000	99.957060  
2255.000000	99.948954  
2254.000000	99.943709  
2253.000000	99.941468  
2252.000000	99.940800  
2251.000000	99.942278  
2250.000000	99.944400  
2249.000000	99.942731  
2248.000000	99.937701  
2247.000000	99.935483  
2246.000000	99.937534  
2245.000000	99.937558  
2244.000000	99.932622  
2243.000000	99.927210  
2242.000000	99.924159  
2241.000000	99.920964  
2240.000000	99.916648  
2239.000000	99.914383  
2238.000000	99.915146  
2237.000000	99.916028  
2236.000000	99.915504  
2235.000000	99.914383  
2234.000000	99.912667  
2233.000000	99.909496  
2232.000000	99.906063  
2231.000000	99.904131  
2230.000000	99.902892  
2229.000000	99.899554  
2228.000000	99.893116  
2227.000000	99.886107  
2226.000000	99.881982  
2225.000000	99.881172  
2224.000000	99.880814  
2223.000000	99.879574  
2222.000000	99.879360  
2221.000000	99.879741  
2220.000000	99.876976  
2219.000000	99.871087  
2218.000000	99.866557  
2217.000000	99.864172  
2216.000000	99.860310  
2215.000000	99.855637  
2214.000000	99.854779  
2213.000000	99.855828  
2212.000000	99.851799  
2211.000000	99.842262  
2210.000000	99.833559  
2209.000000	99.827146  
2208.000000	99.819922  
2207.000000	99.814248  
2206.000000	99.813961  
2205.000000	99.814867  
2204.000000	99.810647  
2203.000000	99.803709  
2202.000000	99.799442  
2201.000000	99.795722  
2200.000000	99.789023  
2199.000000	99.782848  
2198.000000	99.780583  
2197.000000	99.777841  
2196.000000	99.771142  
2195.000000	99.764752  
2194.000000	99.761700  
2193.000000	99.758028  
2192.000000	99.751687  
2191.000000	99.747085  
2190.000000	99.745988  
2189.000000	99.743556  
2188.000000	99.737024  
2187.000000	99.729681  
2186.000000	99.723529  
2185.000000	99.717378  
2184.000000	99.711632  
2183.000000	99.708771  
2182.000000	99.707913  
2181.000000	99.705338  
2180.000000	99.700212  
2179.000000	99.694776  
2178.000000	99.690246  
2177.000000	99.685859  
2176.000000	99.681496  
2175.000000	99.678158  
2174.000000	99.676036  
2173.000000	99.672985  
2172.000000	99.666738  
2171.000000	99.658226  
2170.000000	99.651288  
2169.000000	99.646902  
2168.000000	99.642229  
2167.000000	99.636602  
2166.000000	99.633502  
2165.000000	99.633359  
2164.000000	99.631977  
2163.000000	99.628734  
2162.000000	99.628090  
2161.000000	99.630022  
2160.000000	99.629521  
2159.000000	99.626684  
2158.000000	99.626255  
2157.000000	99.627113  
2156.000000	99.624323  
2155.000000	99.620366  
2154.000000	99.621844  
2153.000000	99.626946  
2152.000000	99.628949  
2151.000000	99.628496  
2150.000000	99.629926  
2149.000000	99.630475  
2148.000000	99.626207  
2147.000000	99.621200  
2146.000000	99.620056  
2145.000000	99.618768  
2144.000000	99.614024  
2143.000000	99.611520  
2142.000000	99.614787  
2141.000000	99.616408  
2140.000000	99.610209  
2139.000000	99.600887  
2138.000000	99.594807  
2137.000000	99.591159  
2136.000000	99.587631  
2135.000000	99.585747  
2134.000000	99.585008  
2133.000000	99.581694  
2132.000000	99.575901  
2131.000000	99.572134  
2130.000000	99.572229  
2129.000000	99.572563  
2128.000000	99.569845  
2127.000000	99.564099  
2126.000000	99.556732  
2125.000000	99.548316  
2124.000000	99.539375  
2123.000000	99.531054  
2122.000000	99.524569  
2121.000000	99.519586  
2120.000000	99.514031  
2119.000000	99.507546  
2118.000000	99.502182  
2117.000000	99.498319  
2116.000000	99.493455  
2115.000000	99.487161  
2114.000000	99.483251  
2113.000000	99.481582  
2112.000000	99.476575  
2111.000000	99.467015  
2110.000000	99.458694  
2109.000000	99.453425  
2108.000000	99.445986  
2107.000000	99.435734  
2106.000000	99.428439  
2105.000000	99.424242  
2104.000000	99.417567  
2103.000000	99.409127  
2102.000000	99.404597  
2101.000000	99.401545  
2100.000000	99.393105  
2099.000000	99.382185  
2098.000000	99.376130  
2097.000000	99.371385  
2096.000000	99.359440  
2095.000000	99.342513  
2094.000000	99.328017  
2093.000000	99.315309  
2092.000000	99.300622  
2091.000000	99.287557  
2090.000000	99.280023  
2089.000000	99.273204  
2088.000000	99.262428  
2087.000000	99.250650  
2086.000000	99.240493  
2085.000000	99.227595  
2084.000000	99.210214  
2083.000000	99.194216  
2082.000000	99.183344  
2081.000000	99.173903  
2080.000000	99.162983  
2079.000000	99.153351  
2078.000000	99.147176  
2077.000000	99.142098  
2076.000000	99.136114  
2075.000000	99.129843  
2074.000000	99.123287  
2073.000000	99.114847  
2072.000000	99.104094  
2071.000000	99.093008  
2070.000000	99.083852  
2069.000000	99.077177  
2068.000000	99.071574  
2067.000000	99.066042  
2066.000000	99.061059  
2065.000000	99.056148  
2064.000000	99.048900  
2063.000000	99.039387  
2062.000000	99.031472  
2061.000000	99.026131  
2060.000000	99.019193  
2059.000000	99.009561  
2058.000000	99.001598  
2057.000000	98.995327  
2056.000000	98.984146  
2055.000000	98.967695  
2054.000000	98.954319  
2053.000000	98.946571  
2052.000000	98.937797  
2051.000000	98.925590  
2050.000000	98.914861  
2049.000000	98.905730  
2048.000000	98.894405  
2047.000000	98.885059  
2046.000000	98.883938  
2045.000000	98.884606  
2044.000000	98.876380  
2043.000000	98.863291  
2042.000000	98.856163  
2041.000000	98.853278  
2040.000000	98.847317  
2039.000000	98.841619  
2038.000000	98.842144  
2037.000000	98.843622  
2036.000000	98.839831  
2035.000000	98.836469  
2034.000000	98.839378  
2033.000000	98.843097  
2032.000000	98.842167  
2031.000000	98.841261  
2030.000000	98.845124  
2029.000000	98.849844  
2028.000000	98.852419  
2027.000000	98.856782  
2026.000000	98.864817  
2025.000000	98.871564  
2024.000000	98.872661  
2023.000000	98.870015  
2022.000000	98.867940  
2021.000000	98.867821  
2020.000000	98.868370  
2019.000000	98.868370  
2018.000000	98.867964  
2017.000000	98.867487  
2016.000000	98.866510  
2015.000000	98.865771  
2014.000000	98.867750  
2013.000000	98.872733  
2012.000000	98.875641  
2011.000000	98.873376  
2010.000000	98.869657  
2009.000000	98.867845  
2008.000000	98.865270  
2007.000000	98.860454  
2006.000000	98.858141  
2005.000000	98.859858  
2004.000000	98.859620  
2003.000000	98.856329  
2002.000000	98.856878  
2001.000000	98.861646  
2000.000000	98.861169  
1999.000000	98.853588  
1998.000000	98.847436  
1997.000000	98.844265  
1996.000000	98.836684  
1995.000000	98.825192  
1994.000000	98.817992  
1993.000000	98.813199  
1992.000000	98.802518  
1991.000000	98.790097  
1990.000000	98.785972  
1989.000000	98.786616  
1988.000000	98.781752  
1987.000000	98.774075  
1986.000000	98.772382  
1985.000000	98.772907  
1984.000000	98.767352  
1983.000000	98.758959  
1982.000000	98.753595  
1981.000000	98.747062  
1980.000000	98.735761  
1979.000000	98.726534  
1978.000000	98.724508  
1977.000000	98.722743  
1976.000000	98.714637  
1975.000000	98.703479  
1974.000000	98.693728  
1973.000000	98.682856  
1972.000000	98.668813  
1971.000000	98.654890  
1970.000000	98.643589  
1969.000000	98.631596  
1968.000000	98.614621  
1967.000000	98.593616  
1966.000000	98.574280  
1965.000000	98.560476  
1964.000000	98.549604  
1963.000000	98.536491  
1962.000000	98.520350  
1961.000000	98.503470  
1960.000000	98.485422  
1959.000000	98.465776  
1958.000000	98.448443  
1957.000000	98.435187  
1956.000000	98.421072  
1955.000000	98.404383  
1954.000000	98.392534  
1953.000000	98.388195  
1952.000000	98.382329  
1951.000000	98.369574  
1950.000000	98.357129  
1949.000000	98.348379  
1948.000000	98.335266  
1947.000000	98.315095  
1946.000000	98.297858  
1945.000000	98.287415  
1944.000000	98.277354  
1943.000000	98.269391  
1942.000000	98.273992  
1941.000000	98.289012  
1940.000000	98.302149  
1939.000000	98.314023  
1938.000000	98.335528  
1937.000000	98.364472  
1936.000000	98.389339  
1935.000000	98.411846  
1934.000000	98.440575  
1933.000000	98.470044  
1932.000000	98.489236  
1931.000000	98.501873  
1930.000000	98.516559  
1929.000000	98.528981  
1928.000000	98.533153  
1927.000000	98.536348  
1926.000000	98.545622  
1925.000000	98.553586  
1924.000000	98.553156  
1923.000000	98.550820  
1922.000000	98.553752  
1921.000000	98.557806  
1920.000000	98.558759  
1919.000000	98.559975  
1918.000000	98.563814  
1917.000000	98.565888  
1916.000000	98.564267  
1915.000000	98.562502  
1914.000000	98.562264  
1913.000000	98.560214  
1912.000000	98.554348  
1911.000000	98.547458  
1910.000000	98.542213  
1909.000000	98.537158  
1908.000000	98.527908  
1907.000000	98.513960  
1906.000000	98.500823  
1905.000000	98.491573  
1904.000000	98.480772  
1903.000000	98.464894  
1902.000000	98.449397  
1901.000000	98.437643  
1900.000000	98.422574  
1899.000000	98.401570  
1898.000000	98.384237  
1897.000000	98.373413  
1896.000000	98.356127  
1895.000000	98.327970  
1894.000000	98.303103  
1893.000000	98.288440  
1892.000000	98.271822  
1891.000000	98.247265  
1890.000000	98.224210  
1889.000000	98.204565  
1888.000000	98.178887  
1887.000000	98.150801  
1886.000000	98.134040  
1885.000000	98.124527  
1884.000000	98.106002  
1883.000000	98.081445  
1882.000000	98.066854  
1881.000000	98.059892  
1880.000000	98.047161  
1879.000000	98.032760  
1878.000000	98.028016  
1877.000000	98.025751  
1876.000000	98.013901  
1875.000000	98.000264  
1874.000000	97.995662  
1873.000000	97.992539  
1872.000000	97.982263  
1871.000000	97.975730  
1870.000000	97.982954  
1869.000000	97.995042  
1868.000000	98.001670  
1867.000000	98.008632  
1866.000000	98.023414  
1865.000000	98.042106  
1864.000000	98.059964  
1863.000000	98.080253  
1862.000000	98.105716  
1861.000000	98.131942  
1860.000000	98.153805  
1859.000000	98.171210  
1858.000000	98.187375  
1857.000000	98.202610  
1856.000000	98.213219  
1855.000000	98.218321  
1854.000000	98.224163  
1853.000000	98.234534  
1852.000000	98.242235  
1851.000000	98.241806  
1850.000000	98.241686  
1849.000000	98.247313  
1848.000000	98.246932  
1847.000000	98.233652  
1846.000000	98.221564  
1845.000000	98.219203  
1844.000000	98.211216  
1843.000000	98.191714  
1842.000000	98.181486  
1841.000000	98.188781  
1840.000000	98.190236  
1839.000000	98.174977  
1838.000000	98.162555  
1837.000000	98.159813  
1836.000000	98.147296  
1835.000000	98.124194  
1834.000000	98.113894  
1833.000000	98.114776  
1832.000000	98.099589  
1831.000000	98.067736  
1830.000000	98.043894  
1829.000000	98.027658  
1828.000000	98.000144  
1827.000000	97.970461  
1826.000000	97.959041  
1825.000000	97.949957  
1824.000000	97.917461  
1823.000000	97.875857  
1822.000000	97.851777  
1821.000000	97.833704  
1820.000000	97.799420  
1819.000000	97.759461  
1818.000000	97.731614  
1817.000000	97.703289  
1816.000000	97.659707  
1815.000000	97.614049  
1814.000000	97.580170  
1813.000000	97.546291  
1812.000000	97.499155  
1811.000000	97.446870  
1810.000000	97.400689  
1809.000000	97.356915  
1808.000000	97.307658  
1807.000000	97.254753  
1806.000000	97.205734  
1805.000000	97.162532  
1804.000000	97.119021  
1803.000000	97.071385  
1802.000000	97.026753  
1801.000000	96.989965  
1800.000000	96.949791  
1799.000000	96.898698  
1798.000000	96.853184  
1797.000000	96.825814  
1796.000000	96.794700  
1795.000000	96.743083  
1794.000000	96.691727  
1793.000000	96.651840  
1792.000000	96.588158  
1791.000000	96.486616  
1790.000000	96.395039  
1789.000000	96.342968  
1788.000000	96.285676  
1787.000000	96.190237  
1786.000000	96.089148  
1785.000000	96.002364  
1784.000000	95.893335  
1783.000000	95.757341  
1782.000000	95.639014  
1781.000000	95.530819  
1780.000000	95.373630  
1779.000000	95.183444  
1778.000000	95.032215  
1777.000000	94.902229  
1776.000000	94.722056  
1775.000000	94.514322  
1774.000000	94.331145  
1773.000000	94.092607  
1772.000000	93.716359  
1771.000000	93.299961  
1770.000000	92.988801  
1769.000000	92.708444  
1768.000000	92.306232  
1767.000000	91.802740  
1766.000000	91.355752  
1765.000000	90.952086  
1764.000000	90.461897  
1763.000000	89.772534  
1762.000000	88.908505  
1761.000000	87.931275  
1760.000000	86.959052  
1759.000000	85.988688  
1758.000000	84.788155  
1757.000000	83.096623  
1756.000000	81.064724  
1755.000000	79.095125  
1754.000000	77.225089  
1753.000000	74.966096  
1752.000000	71.859931  
1751.000000	67.876625  
1750.000000	63.266611  
1749.000000	58.394670  
1748.000000	53.789973  
1747.000000	49.874258  
1746.000000	46.623373  
1745.000000	43.812656  
1744.000000	41.511130  
1743.000000	39.887571  
1742.000000	38.913679  
1741.000000	38.635349  
1740.000000	39.353299  
1739.000000	40.897536  
1738.000000	42.472481  
1737.000000	43.732643  
1736.000000	45.543241  
1735.000000	48.844909  
1734.000000	53.327012  
1733.000000	57.643866  
1732.000000	60.873651  
1731.000000	63.150835  
1730.000000	65.174055  
1729.000000	67.255878  
1728.000000	69.145464  
1727.000000	70.549535  
1726.000000	71.594285  
1725.000000	72.578763  
1724.000000	73.593950  
1723.000000	74.516534  
1722.000000	75.247597  
1721.000000	75.810503  
1720.000000	76.362299  
1719.000000	77.115726  
1718.000000	78.172278  
1717.000000	79.377174  
1716.000000	80.505776  
1715.000000	81.456947  
1714.000000	82.273650  
1713.000000	83.008050  
1712.000000	83.708238  
1711.000000	84.413242  
1710.000000	85.119152  
1709.000000	85.761761  
1708.000000	86.336159  
1707.000000	86.922073  
1706.000000	87.552762  
1705.000000	88.118743  
1704.000000	88.505816  
1703.000000	88.742661  
1702.000000	88.965082  
1701.000000	89.258313  
1700.000000	89.592194  
1699.000000	89.882731  
1698.000000	90.102624  
1697.000000	90.309023  
1696.000000	90.572214  
1695.000000	90.877008  
1694.000000	91.126465  
1693.000000	91.268444  
1692.000000	91.374182  
1691.000000	91.537857  
1690.000000	91.739702  
1689.000000	91.897535  
1688.000000	92.001533  
1687.000000	92.107415  
1686.000000	92.234253  
1685.000000	92.380309  
1684.000000	92.571187  
1683.000000	92.795372  
1682.000000	92.965722  
1681.000000	93.050289  
1680.000000	93.131399  
1679.000000	93.260574  
1678.000000	93.376469  
1677.000000	93.449330  
1676.000000	93.547487  
1675.000000	93.695044  
1674.000000	93.809247  
1673.000000	93.850946  
1672.000000	93.890142  
1671.000000	93.976259  
1670.000000	94.068837  
1669.000000	94.130849  
1668.000000	94.178533  
1667.000000	94.219541  
1666.000000	94.233036  
1665.000000	94.217157  
1664.000000	94.186830  
1663.000000	94.133043  
1662.000000	94.038534  
1661.000000	93.922638  
1660.000000	93.827629  
1659.000000	93.767023  
1658.000000	93.716573  
1657.000000	93.654417  
1656.000000	93.597817  
1655.000000	93.589234  
1654.000000	93.642282  
1653.000000	93.721365  
1652.000000	93.784022  
1651.000000	93.824863  
1650.000000	93.860292  
1649.000000	93.904614  
1648.000000	93.972516  
1647.000000	94.070768  
1646.000000	94.169902  
1645.000000	94.230532  
1644.000000	94.266176  
1643.000000	94.332742  
1642.000000	94.449138  
1641.000000	94.581604  
1640.000000	94.705796  
1639.000000	94.832587  
1638.000000	94.970440  
1637.000000	95.113372  
1636.000000	95.260286  
1635.000000	95.399594  
1634.000000	95.493507  
1633.000000	95.526695  
1632.000000	95.544672  
1631.000000	95.594239  
1630.000000	95.660972  
1629.000000	95.716190  
1628.000000	95.771121  
1627.000000	95.838069  
1626.000000	95.891547  
1625.000000	95.923519  
1624.000000	95.971179  
1623.000000	96.049022  
1622.000000	96.113562  
1621.000000	96.141242  
1620.000000	96.165394  
1619.000000	96.212482  
1618.000000	96.260762  
1617.000000	96.292352  
1616.000000	96.318221  
1615.000000	96.343541  
1614.000000	96.353626  
1613.000000	96.346044  
1612.000000	96.332955  
1611.000000	96.309375  
1610.000000	96.247267  
1609.000000	96.126723  
1608.000000	95.949649  
1607.000000	95.725750  
1606.000000	95.455050  
1605.000000	95.138978  
1604.000000	94.810509  
1603.000000	94.542813  
1602.000000	94.412112  
1601.000000	94.449448  
1600.000000	94.636583  
1599.000000	94.923782  
1598.000000	95.246791  
1597.000000	95.543622  
1596.000000	95.785760  
1595.000000	95.980286  
1594.000000	96.133828  
1593.000000	96.243309  
1592.000000	96.320962  
1591.000000	96.392893  
1590.000000	96.457791  
1589.000000	96.490263  
1588.000000	96.483683  
1587.000000	96.452903  
1586.000000	96.397447  
1585.000000	96.316909  
1584.000000	96.252465  
1583.000000	96.260738  
1582.000000	96.342563  
1581.000000	96.454286  
1580.000000	96.568512  
1579.000000	96.681785  
1578.000000	96.780967  
1577.000000	96.857714  
1576.000000	96.928954  
1575.000000	97.002315  
1574.000000	97.052454  
1573.000000	97.070956  
1572.000000	97.094941  
1571.000000	97.148275  
1570.000000	97.201848  
1569.000000	97.229146  
1568.000000	97.248244  
1567.000000	97.274684  
1566.000000	97.293329  
1565.000000	97.301268  
1564.000000	97.318053  
1563.000000	97.337746  
1562.000000	97.334218  
1561.000000	97.322177  
1560.000000	97.341775  
1559.000000	97.384214  
1558.000000	97.400212  
1557.000000	97.379517  
1556.000000	97.359609  
1555.000000	97.359919  
1554.000000	97.362303  
1553.000000	97.352433  
1552.000000	97.339773  
1551.000000	97.334575  
1550.000000	97.328710  
1549.000000	97.308278  
1548.000000	97.280693  
1547.000000	97.270059  
1546.000000	97.275590  
1545.000000	97.265195  
1544.000000	97.233366  
1543.000000	97.218728  
1542.000000	97.233891  
1541.000000	97.240471  
1540.000000	97.226738  
1539.000000	97.231340  
1538.000000	97.258996  
1537.000000	97.264909  
1536.000000	97.246789  
1535.000000	97.252535  
1534.000000	97.280859  
1533.000000	97.280311  
1532.000000	97.253227  
1531.000000	97.251224  
1530.000000	97.271132  
1529.000000	97.268223  
1528.000000	97.253870  
1527.000000	97.265481  
1526.000000	97.275972  
1525.000000	97.247934  
1524.000000	97.222518  
1523.000000	97.242832  
1522.000000	97.258424  
1521.000000	97.215127  
1520.000000	97.157001  
1519.000000	97.141551  
1518.000000	97.137236  
1517.000000	97.098994  
1516.000000	97.054767  
1515.000000	97.042012  
1514.000000	97.034740  
1513.000000	97.001266  
1512.000000	96.959018  
1511.000000	96.931910  
1510.000000	96.906495  
1509.000000	96.874237  
1508.000000	96.836566  
1507.000000	96.784472  
1506.000000	96.701216  
1505.000000	96.599459  
1504.000000	96.501636  
1503.000000	96.407580  
1502.000000	96.290898  
1501.000000	96.119475  
1500.000000	95.861029  
1499.000000	95.448708  
1498.000000	94.712018  
1497.000000	93.496751  
1496.000000	91.981172  
1495.000000	90.699911  
1494.000000	90.055727  
1493.000000	90.004563  
1492.000000	90.410399  
1491.000000	91.310596  
1490.000000	92.570042  
1489.000000	93.672037  
1488.000000	94.252014  
1487.000000	94.477462  
1486.000000	94.648647  
1485.000000	94.774436  
1484.000000	94.791126  
1483.000000	94.776344  
1482.000000	94.756031  
1481.000000	94.640660  
1480.000000	94.464612  
1479.000000	94.335913  
1478.000000	94.167065  
1477.000000	93.824458  
1476.000000	93.437647  
1475.000000	93.113589  
1474.000000	92.502498  
1473.000000	91.214704  
1472.000000	89.474248  
1471.000000	87.833833  
1470.000000	86.418867  
1469.000000	85.007786  
1468.000000	83.579134  
1467.000000	82.249927  
1466.000000	80.968570  
1465.000000	79.747056  
1464.000000	78.871202  
1463.000000	78.477025  
1462.000000	78.312182  
1461.000000	78.188872  
1460.000000	78.185534  
1459.000000	78.146481  
1458.000000	77.627992  
1457.000000	76.598238  
1456.000000	75.625228  
1455.000000	75.139188  
1454.000000	75.059461  
1453.000000	75.241398  
1452.000000	75.736188  
1451.000000	76.471829  
1450.000000	77.151608  
1449.000000	77.601504  
1448.000000	77.866744  
1447.000000	77.987289  
1446.000000	77.928233  
1445.000000	77.730751  
1444.000000	77.443861  
1443.000000	77.024960  
1442.000000	76.418709  
1441.000000	75.702834  
1440.000000	74.962830  
1439.000000	74.207878  
1438.000000	73.476839  
1437.000000	72.978305  
1436.000000	72.971129  
1435.000000	73.543071  
1434.000000	74.591827  
1433.000000	75.968885  
1432.000000	77.602815  
1431.000000	79.438805  
1430.000000	81.317305  
1429.000000	82.976675  
1428.000000	84.220266  
1427.000000	85.061311  
1426.000000	85.667037  
1425.000000	86.177372  
1424.000000	86.598610  
1423.000000	86.873650  
1422.000000	87.008261  
1421.000000	87.101674  
1420.000000	87.254214  
1419.000000	87.506246  
1418.000000	87.837433  
1417.000000	88.221073  
1416.000000	88.622570  
1415.000000	89.033842  
1414.000000	89.452886  
1413.000000	89.885401  
1412.000000	90.302300  
1411.000000	90.668654  
1410.000000	90.956187  
1409.000000	91.163492  
1408.000000	91.296410  
1407.000000	91.350960  
1406.000000	91.309499  
1405.000000	91.166281  
1404.000000	90.944314  
1403.000000	90.682792  
1402.000000	90.419435  
1401.000000	90.184164  
1400.000000	89.999151  
1399.000000	89.869809  
1398.000000	89.785480  
1397.000000	89.730858  
1396.000000	89.691162  
1395.000000	89.652585  
1394.000000	89.628529  
1393.000000	89.664840  
1392.000000	89.791655  
1391.000000	89.980983  
1390.000000	90.199780  
1389.000000	90.458416  
1388.000000	90.758657  
1387.000000	91.024422  
1386.000000	91.157031  
1385.000000	91.126465  
1384.000000	90.952253  
1383.000000	90.644001  
1382.000000	90.217185  
1381.000000	89.723992  
1380.000000	89.215564  
1379.000000	88.710999  
1378.000000	88.232064  
1377.000000	87.805867  
1376.000000	87.417030  
1375.000000	87.018489  
1374.000000	86.615991  
1373.000000	86.275267  
1372.000000	86.032605  
1371.000000	85.852146  
1370.000000	85.686421  
1369.000000	85.522079  
1368.000000	85.363721  
1367.000000	85.208988  
1366.000000	85.061049  
1365.000000	84.927535  
1364.000000	84.817361  
1363.000000	84.739542  
1362.000000	84.715247  
1361.000000	84.755396  
1360.000000	84.853291  
1359.000000	84.986281  
1358.000000	85.142350  
1357.000000	85.314297  
1356.000000	85.498785  
1355.000000	85.685825  
1354.000000	85.870766  
1353.000000	86.055755  
1352.000000	86.250638  
1351.000000	86.460733  
1350.000000	86.685585  
1349.000000	86.923599  
1348.000000	87.176609  
1347.000000	87.443232  
1346.000000	87.716722  
1345.000000	87.989902  
1344.000000	88.254594  
1343.000000	88.497161  
1342.000000	88.707876  
1341.000000	88.890957  
1340.000000	89.049482  
1339.000000	89.165449  
1338.000000	89.220523  
1337.000000	89.225029  
1336.000000	89.207124  
1335.000000	89.175176  
1334.000000	89.120817  
1333.000000	89.040565  
1332.000000	88.939666  
1331.000000	88.814592  
1330.000000	88.661694  
1329.000000	88.486909  
1328.000000	88.303756  
1327.000000	88.118791  
1326.000000	87.937688  
1325.000000	87.768745  
1324.000000	87.623476  
1323.000000	87.508392  
1322.000000	87.426018  
1321.000000	87.374639  
1320.000000	87.350893  
1319.000000	87.348580  
1318.000000	87.358736  
1317.000000	87.371706  
1316.000000	87.381148  
1315.000000	87.381005  
1314.000000	87.362360  
1313.000000	87.319564  
1312.000000	87.259697  
1311.000000	87.195873  
1310.000000	87.137222  
1309.000000	87.091445  
1308.000000	87.071824  
1307.000000	87.085413  
1306.000000	87.120604  
1305.000000	87.160825  
1304.000000	87.200856  
1303.000000	87.243652  
1302.000000	87.284326  
1301.000000	87.318754  
1300.000000	87.347722  
1299.000000	87.373352  
1298.000000	87.389469  
1297.000000	87.394452  
1296.000000	87.392449  
1295.000000	87.384867  
1294.000000	87.362933  
1293.000000	87.318181  
1292.000000	87.245750  
1291.000000	87.138104  
1290.000000	86.983776  
1289.000000	86.776757  
1288.000000	86.521601  
1287.000000	86.227560  
1286.000000	85.906195  
1285.000000	85.571765  
1284.000000	85.241007  
1283.000000	84.926986  
1282.000000	84.639906  
1281.000000	84.386682  
1280.000000	84.171295  
1279.000000	83.989524  
1278.000000	83.828973  
1277.000000	83.672714  
1276.000000	83.506822  
1275.000000	83.323931  
1274.000000	83.119583  
1273.000000	82.893252  
1272.000000	82.653808  
1271.000000	82.419562  
1270.000000	82.203888  
1269.000000	82.009553  
1268.000000	81.836986  
1267.000000	81.689882  
1266.000000	81.567287  
1265.000000	81.462574  
1264.000000	81.373095  
1263.000000	81.297612  
1262.000000	81.223964  
1261.000000	81.132102  
1260.000000	81.012630  
1259.000000	80.865097  
1258.000000	80.686211  
1257.000000	80.470156  
1256.000000	80.224895  
1255.000000	79.962348  
1254.000000	79.687643  
1253.000000	79.400682  
1252.000000	79.114699  
1251.000000	78.845191  
1250.000000	78.602194  
1249.000000	78.392219  
1248.000000	78.232836  
1247.000000	78.139019  
1246.000000	78.114938  
1245.000000	78.155970  
1244.000000	78.258705  
1243.000000	78.414154  
1242.000000	78.608608  
1241.000000	78.831768  
1240.000000	79.081273  
1239.000000	79.350805  
1238.000000	79.627823  
1237.000000	79.901504  
1236.000000	80.167961  
1235.000000	80.422449  
1234.000000	80.656313  
1233.000000	80.860781  
1232.000000	81.032037  
1231.000000	81.167554  
1230.000000	81.265926  
1229.000000	81.325507  
1228.000000	81.347203  
1227.000000	81.329250  
1226.000000	81.272935  
1225.000000	81.178021  
1224.000000	81.051683  
1223.000000	80.898237  
1222.000000	80.724406  
1221.000000	80.527615  
1220.000000	80.310678  
1219.000000	80.073642  
1218.000000	79.820322  
1217.000000	79.546737  
1216.000000	79.255580  
1215.000000	78.948402  
1214.000000	78.624820  
1213.000000	78.276181  
1212.000000	77.900791  
1211.000000	77.502417  
1210.000000	77.081656  
1209.000000	76.633119  
1208.000000	76.158118  
1207.000000	75.662088  
1206.000000	75.145602  
1205.000000	74.607920  
1204.000000	74.065089  
1203.000000	73.540282  
1202.000000	73.050045  
1201.000000	72.606086  
1200.000000	72.235798  
1199.000000	71.970462  
1198.000000	71.828079  
1197.000000	71.818685  
1196.000000	71.955943  
1195.000000	72.249603  
1194.000000	72.686600  
1193.000000	73.243117  
1192.000000	73.890495  
1191.000000	74.591779  
1190.000000	75.291037  
1189.000000	75.928235  
1188.000000	76.453018  
1187.000000	76.823830  
1186.000000	77.007889  
1185.000000	76.987028  
1184.000000	76.767444  
1183.000000	76.372265  
1182.000000	75.834751  
1181.000000	75.190377  
1180.000000	74.477910  
1179.000000	73.738479  
1178.000000	73.012113  
1177.000000	72.331547  
1176.000000	71.726608  
1175.000000	71.228551  
1174.000000	70.864176  
1173.000000	70.646524  
1172.000000	70.578336  
1171.000000	70.662474  
1170.000000	70.891857  
1169.000000	71.250295  
1168.000000	71.715927  
1167.000000	72.282719  
1166.000000	72.932720  
1165.000000	73.641133  
1164.000000	74.376034  
1163.000000	75.128197  
1162.000000	75.882792  
1161.000000	76.623249  
1160.000000	77.332186  
1159.000000	78.009414  
1158.000000	78.651165  
1157.000000	79.254984  
1156.000000	79.831385  
1155.000000	80.406522  
1154.000000	80.996251  
1153.000000	81.596779  
1152.000000	82.195067  
1151.000000	82.776880  
1150.000000	83.321094  
1149.000000	83.807945  
1148.000000	84.229540  
1147.000000	84.589600  
1146.000000	84.887886  
1145.000000	85.125398  
1144.000000	85.308933  
1143.000000	85.451865  
1142.000000	85.561680  
1141.000000	85.652232  
1140.000000	85.743284  
1139.000000	85.856509  
1138.000000	85.997676  
1137.000000	86.170268  
1136.000000	86.374521  
1135.000000	86.608600  
1134.000000	86.858725  
1133.000000	87.117624  
1132.000000	87.382483  
1131.000000	87.646794  
1130.000000	87.894392  
1129.000000	88.115477  
1128.000000	88.307738  
1127.000000	88.465571  
1126.000000	88.580012  
1125.000000	88.652873  
1124.000000	88.695049  
1123.000000	88.710618  
1122.000000	88.700628  
1121.000000	88.675785  
1120.000000	88.653540  
1119.000000	88.638758  
1118.000000	88.626837  
1117.000000	88.614177  
1116.000000	88.599181  
1115.000000	88.572311  
1114.000000	88.523507  
1113.000000	88.451361  
1112.000000	88.360691  
1111.000000	88.253927  
1110.000000	88.132691  
1109.000000	88.004136  
1108.000000	87.881135  
1107.000000	87.778878  
1106.000000	87.711358  
1105.000000	87.689900  
1104.000000	87.721085  
1103.000000	87.803769  
1102.000000	87.927508  
1101.000000	88.076424  
1100.000000	88.235735  
1099.000000	88.392543  
1098.000000	88.532948  
1097.000000	88.646245  
1096.000000	88.733839  
1095.000000	88.803291  
1094.000000	88.859105  
1093.000000	88.902449  
1092.000000	88.940143  
1091.000000	88.979482  
1090.000000	89.020657  
1089.000000	89.066505  
1088.000000	89.127779  
1087.000000	89.214920  
1086.000000	89.320659  
1085.000000	89.435338  
1084.000000	89.553475  
1083.000000	89.671277  
1082.000000	89.776492  
1081.000000	89.863204  
1080.000000	89.936184  
1079.000000	89.993810  
1078.000000	90.019512  
1077.000000	89.995312  
1076.000000	89.913558  
1075.000000	89.769196  
1074.000000	89.561200  
1073.000000	89.305925  
1072.000000	89.038276  
1071.000000	88.794898  
1070.000000	88.608527  
1069.000000	88.509893  
1068.000000	88.518500  
1067.000000	88.625431  
1066.000000	88.798999  
1065.000000	89.006781  
1064.000000	89.225769  
1063.000000	89.440155  
1062.000000	89.642691  
1061.000000	89.837098  
1060.000000	90.027928  
1059.000000	90.214037  
1058.000000	90.392899  
1057.000000	90.569424  
1056.000000	90.747642  
1055.000000	90.924358  
1054.000000	91.089892  
1053.000000	91.236519  
1052.000000	91.359114  
1051.000000	91.453433  
1050.000000	91.516518  
1049.000000	91.547274  
1048.000000	91.548800  
1047.000000	91.525793  
1046.000000	91.484498  
1045.000000	91.431736  
1044.000000	91.375136  
1043.000000	91.319513  
1042.000000	91.262722  
1041.000000	91.201210  
1040.000000	91.135120  
1039.000000	91.063427  
1038.000000	90.973973  
1037.000000	90.850567  
1036.000000	90.683889  
1035.000000	90.471363  
1034.000000	90.211987  
1033.000000	89.914751  
1032.000000	89.604306  
1031.000000	89.306926  
1030.000000	89.037537  
1029.000000	88.805985  
1028.000000	88.623595  
1027.000000	88.491153  
1026.000000	88.394021  
1025.000000	88.316130  
1024.000000	88.252711  
1023.000000	88.201022  
1022.000000	88.156270  
1021.000000	88.118481  
1020.000000	88.095140  
1019.000000	88.089370  
1018.000000	88.097381  
1017.000000	88.118004  
1016.000000	88.153171  
1015.000000	88.200807  
1014.000000	88.257026  
1013.000000	88.325190  
1012.000000	88.411426  
1011.000000	88.513588  
1010.000000	88.623237  
1009.000000	88.735651  
1008.000000	88.849163  
1007.000000	88.958382  
1006.000000	89.057826  
1005.000000	89.148116  
1004.000000	89.234375  
1003.000000	89.318656  
1002.000000	89.399504  
1001.000000	89.473772  
1000.000000	89.536237  
999.000000	 89.579558  
998.000000	 89.597606  
997.000000	 89.589524  
996.000000	 89.560198  
995.000000	 89.516401  
994.000000	 89.462542  
993.000000	 89.401030  
992.000000	 89.336514  
991.000000	 89.276051  
990.000000	 89.225435  
989.000000	 89.191150  
988.000000	 89.182782  
987.000000	 89.207291  
986.000000	 89.260196  
985.000000	 89.330768  
984.000000	 89.412999  
983.000000	 89.503765  
982.000000	 89.595222  
981.000000	 89.676809  
980.000000	 89.746046  
979.000000	 89.803695  
978.000000	 89.850068  
977.000000	 89.884495  
976.000000	 89.913058  
975.000000	 89.938879  
974.000000	 89.962410  
973.000000	 89.985609  
972.000000	 90.017795  
971.000000	 90.062999  
970.000000	 90.119838  
969.000000	 90.192580  
968.000000	 90.294003  
967.000000	 90.430593  
966.000000	 90.597987  
965.000000	 90.793323  
964.000000	 91.017460  
963.000000	 91.263389  
962.000000	 91.515684  
961.000000	 91.763401  
960.000000	 92.000699  
959.000000	 92.216753  
958.000000	 92.397880  
957.000000	 92.540049  
956.000000	 92.647409  
955.000000	 92.722225  
954.000000	 92.766118  
953.000000	 92.787313  
952.000000	 92.797541  
951.000000	 92.802834  
950.000000	 92.805981  
949.000000	 92.809009  
948.000000	 92.814636  
947.000000	 92.820596  
946.000000	 92.824578  
945.000000	 92.825531  
944.000000	 92.826414  
943.000000	 92.829370  
942.000000	 92.835998  
941.000000	 92.846679  
940.000000	 92.863702  
939.000000	 92.888379  
938.000000	 92.919158  
937.000000	 92.951536  
936.000000	 92.983317  
935.000000	 93.014717  
934.000000	 93.043780  
933.000000	 93.066573  
932.000000	 93.080091  
931.000000	 93.083596  
930.000000	 93.075227  
929.000000	 93.053555  
928.000000	 93.019151  
927.000000	 92.971777  
926.000000	 92.907786  
925.000000	 92.826104  
924.000000	 92.732286  
923.000000	 92.629957  
922.000000	 92.515778  
921.000000	 92.385554  
920.000000	 92.242407  
919.000000	 92.091226  
918.000000	 91.936373  
917.000000	 91.786766  
916.000000	 91.658663  
915.000000	 91.562366  
914.000000	 91.496992  
913.000000	 91.457939  
912.000000	 91.443538  
911.000000	 91.450405  
910.000000	 91.474771  
909.000000	 91.519689  
908.000000	 91.592359  
907.000000	 91.693758  
906.000000	 91.818356  
905.000000	 91.962528  
904.000000	 92.121028  
903.000000	 92.279267  
902.000000	 92.420625  
901.000000	 92.541003  
900.000000	 92.644214  
899.000000	 92.730188  
898.000000	 92.795491  
897.000000	 92.842268  
896.000000	 92.874598  
895.000000	 92.892432  
894.000000	 92.894411  
893.000000	 92.883348  
892.000000	 92.860913  
891.000000	 92.824411  
890.000000	 92.771339  
889.000000	 92.704463  
888.000000	 92.629194  
887.000000	 92.550086  
886.000000	 92.473697  
885.000000	 92.409896  
884.000000	 92.370057  
883.000000	 92.361831  
882.000000	 92.387485  
881.000000	 92.444896  
880.000000	 92.529797  
879.000000	 92.632555  
878.000000	 92.738056  
877.000000	 92.832231  
876.000000	 92.910265  
875.000000	 92.968058  
874.000000	 92.994713  
873.000000	 92.978334  
872.000000	 92.921447  
871.000000	 92.835044  
870.000000	 92.730426  
869.000000	 92.620062  
868.000000	 92.525196  
867.000000	 92.466998  
866.000000	 92.457103  
865.000000	 92.499732  
864.000000	 92.592310  
863.000000	 92.719697  
862.000000	 92.855787  
861.000000	 92.983198  
860.000000	 93.099355  
859.000000	 93.204402  
858.000000	 93.292474  
857.000000	 93.361020  
856.000000	 93.414211  
855.000000	 93.455982  
854.000000	 93.488550  
853.000000	 93.518733  
852.000000	 93.553209  
851.000000	 93.588185  
850.000000	 93.614840  
849.000000	 93.632698  
848.000000	 93.647241  
847.000000	 93.658328  
846.000000	 93.664240  
845.000000	 93.671751  
844.000000	 93.692445  
843.000000	 93.731379  
842.000000	 93.787455  
841.000000	 93.859767  
840.000000	 93.947243  
839.000000	 94.043898  
838.000000	 94.140434  
837.000000	 94.231295  
836.000000	 94.317412  
835.000000	 94.403576  
834.000000	 94.492411  
833.000000	 94.582509  
832.000000	 94.671034  
831.000000	 94.758415  
830.000000	 94.846630  
829.000000	 94.935655  
828.000000	 95.021629  
827.000000	 95.099949  
826.000000	 95.168185  
825.000000	 95.229268  
824.000000	 95.288610  
823.000000	 95.348095  
822.000000	 95.403122  
821.000000	 95.450830  
820.000000	 95.495295  
819.000000	 95.540428  
818.000000	 95.580458  
817.000000	 95.609474  
816.000000	 95.630121  
815.000000	 95.648527  
814.000000	 95.662236  
813.000000	 95.669054  
812.000000	 95.672988  
811.000000	 95.679783  
810.000000	 95.686554  
809.000000	 95.691990  
808.000000	 95.697855  
807.000000	 95.701169  
806.000000	 95.690798  
805.000000	 95.662832  
804.000000	 95.624041  
803.000000	 95.578980  
802.000000	 95.523953  
801.000000	 95.456004  
800.000000	 95.373868  
799.000000	 95.270681  
798.000000	 95.139336  
797.000000	 94.988012  
796.000000	 94.839739  
795.000000	 94.716191  
794.000000	 94.630575  
793.000000	 94.589829  
792.000000	 94.595074  
791.000000	 94.636511  
790.000000	 94.700765  
789.000000	 94.776225  
788.000000	 94.853878  
787.000000	 94.921851  
786.000000	 94.970917  
785.000000	 94.997644  
784.000000	 95.004701  
783.000000	 94.993114  
782.000000	 94.962620  
781.000000	 94.910860  
780.000000	 94.837522  
779.000000	 94.741892  
778.000000	 94.622755  
777.000000	 94.478726  
776.000000	 94.312334  
775.000000	 94.125103  
774.000000	 93.912410  
773.000000	 93.668031  
772.000000	 93.395996  
771.000000	 93.107581  
770.000000	 92.809534  
769.000000	 92.502784  
768.000000	 92.192506  
767.000000	 91.887760  
766.000000	 91.591572  
765.000000	 91.300582  
764.000000	 91.011691  
763.000000	 90.723991  
762.000000	 90.439391  
761.000000	 90.169024  
760.000000	 89.935374  
759.000000	 89.757132  
758.000000	 89.638042  
757.000000	 89.568281  
756.000000	 89.534687  
755.000000	 89.517688  
754.000000	 89.493417  
753.000000	 89.440369  
752.000000	 89.349722  
751.000000	 89.223718  
750.000000	 89.076042  
749.000000	 88.930130  
748.000000	 88.812780  
747.000000	 88.739156  
746.000000	 88.707160  
745.000000	 88.702034  
744.000000	 88.703179  
743.000000	 88.687825  
742.000000	 88.639450  
741.000000	 88.552832  
740.000000	 88.430356  
739.000000	 88.273286  
738.000000	 88.085556  
737.000000	 87.878060  
736.000000	 87.660431  
735.000000	 87.432575  
734.000000	 87.188076  
733.000000	 86.926507  
732.000000	 86.648201  
731.000000	 86.352825  
730.000000	 86.043763  
729.000000	 85.734176  
728.000000	 85.438823  
727.000000	 85.170149  
726.000000	 84.944438  
725.000000	 84.780836  
724.000000	 84.688305  
723.000000	 84.658837  
722.000000	 84.677386  
721.000000	 84.732198  
720.000000	 84.812402  
719.000000	 84.904336  
718.000000	 84.992146  
717.000000	 85.065579  
716.000000	 85.121297  
715.000000	 85.157370  
714.000000	 85.167717  
713.000000	 85.128092  
712.000000	 85.014128  
711.000000	 84.785151  
710.000000	 84.409809  
709.000000	 83.834362  
708.000000	 83.010268  
707.000000	 81.875109  
706.000000	 80.404233  
705.000000	 78.612351  
704.000000	 76.593375  
703.000000	 74.508714  
702.000000	 72.597932  
701.000000	 71.160483  
700.000000	 70.516681  
699.000000	 70.919394  
698.000000	 72.419166  
697.000000	 74.784326  
696.000000	 77.550578  
695.000000	 80.214452  
694.000000	 82.427525  
693.000000	 84.082198  
692.000000	 85.251069  
691.000000	 86.075043  
690.000000	 86.679720  
689.000000	 87.157130  
688.000000	 87.559127  
687.000000	 87.905907  
686.000000	 88.205504  
685.000000	 88.480067  
684.000000	 88.751745  
683.000000	 89.014077  
682.000000	 89.260387  
681.000000	 89.496088  
680.000000	 89.747858  
679.000000	 90.001130  
678.000000	 90.250873  
677.000000	 90.497970  
676.000000	 90.744996  
675.000000	 90.971684  
674.000000	 91.186642  
673.000000	 91.406702  
672.000000	 91.588211  
671.000000	 91.670036  
670.000000	 91.721248  
669.000000	 91.904473  
668.000000	 92.257237  
667.000000	 92.633080  
666.000000	 92.899394  
665.000000	 93.069148  
664.000000	 93.212962  
663.000000	 93.354797  
662.000000	 93.490672  
661.000000	 93.627429  
660.000000	 93.769145  
659.000000	 93.906378  
658.000000	 94.029593  
657.000000	 94.138550  
656.000000	 94.237470  
655.000000	 94.333004  
654.000000	 94.428324  
653.000000	 94.520854  
652.000000	 94.606518  
651.000000	 94.687485  
650.000000	 94.767069  
649.000000	 94.849848  
648.000000	 94.936203  
647.000000	 95.023751  
646.000000	 95.108270  
645.000000	 95.188283  
644.000000	 95.263791  
643.000000	 95.334792  
642.000000	 95.399761  
641.000000	 95.458889  
640.000000	 95.513749  
639.000000	 95.564150  
638.000000	 95.609855  
637.000000	 95.653533  
636.000000	 95.696234  
635.000000	 95.731067  
634.000000	 95.751786  
633.000000	 95.763158  
632.000000	 95.774030  
631.000000	 95.781993  
630.000000	 95.781373  
629.000000	 95.777201  
628.000000	 95.778441  
627.000000	 95.781207  
626.000000	 95.775771  
625.000000	 95.761466  
624.000000	 95.743012  
623.000000	 95.719790  
622.000000	 95.690727  
621.000000	 95.659923  
620.000000	 95.629572  
619.000000	 95.595860  
618.000000	 95.560073  
617.000000	 95.531105  
616.000000	 95.512676  
615.000000	 95.497059  
614.000000	 95.477747  
613.000000	 95.457863  
612.000000	 95.443034  
611.000000	 95.433950  
610.000000	 95.428800  
609.000000	 95.426583  
608.000000	 95.426154  
607.000000	 95.427060  
606.000000	 95.431232  
605.000000	 95.440649  
604.000000	 95.453906  
603.000000	 95.468330  
602.000000	 95.483040  
601.000000	 95.495176  
600.000000	 95.498561  
599.000000	 95.490956  
598.000000	 95.481133  
597.000000	 95.482182  
596.000000	 95.498728  
595.000000	 95.521163  
594.000000	 95.535230  
593.000000	 95.534324  
592.000000	 95.523786  
591.000000	 95.513606  
590.000000	 95.510458  
589.000000	 95.515871  
588.000000	 95.528578  
587.000000	 95.544934  
586.000000	 95.559501  
585.000000	 95.568943  
584.000000	 95.575046  
583.000000	 95.583343  
582.000000	 95.599508  
581.000000	 95.625901  
580.000000	 95.659255  
579.000000	 95.692133  
578.000000	 95.719313  
577.000000	 95.741868  
576.000000	 95.761513  
575.000000	 95.776224  
574.000000	 95.786619  
573.000000	 95.801210  
572.000000	 95.825886  
571.000000	 95.854043  
570.000000	 95.876073  
569.000000	 95.892071  
568.000000	 95.905876  
567.000000	 95.917463  
566.000000	 95.928764  
565.000000	 95.947194  
564.000000	 95.974373  
563.000000	 96.001887  
562.000000	 96.026062  
561.000000	 96.052670  
560.000000	 96.084022  
559.000000	 96.113824  
558.000000	 96.140360  
557.000000	 96.169424  
556.000000	 96.202349  
555.000000	 96.234393  
554.000000	 96.265459  
553.000000	 96.298122  
552.000000	 96.325850  
551.000000	 96.337628  
550.000000	 96.334171  
549.000000	 96.323800  
548.000000	 96.309685  
547.000000	 96.289443  
546.000000	 96.266460  
545.000000	 96.243143  
544.000000	 96.216845  
543.000000	 96.189093  
542.000000	 96.174550  
541.000000	 96.185207  
540.000000	 96.219658  
539.000000	 96.273756  
538.000000	 96.354532  
537.000000	 96.470570  
536.000000	 96.619033  
535.000000	 96.788668  
534.000000	 96.969318  
533.000000	 97.152519  
532.000000	 97.331166  
531.000000	 97.500967  
530.000000	 97.656893  
529.000000	 97.791218  
528.000000	 97.902297  
527.000000	 98.002338  
526.000000	 98.106455  
525.000000	 98.213982  
524.000000	 98.309922  
523.000000	 98.384761  
522.000000	 98.448657  
521.000000	 98.518681  
520.000000	 98.594331  
519.000000	 98.654365  
518.000000	 98.688411  
517.000000	 98.714184  
516.000000	 98.755645  
515.000000	 98.810768  
514.000000	 98.861384  
513.000000	 98.899149  
512.000000	 98.930001  
511.000000	 98.958778  
510.000000	 98.987936  
509.000000	 99.020433  
508.000000	 99.056410  
507.000000	 99.093246  
506.000000	 99.133086  
505.000000	 99.177408  
504.000000	 99.216079  
503.000000	 99.242782  
502.000000	 99.276781  
501.000000	 99.339866  
500.000000	 99.416685  
499.000000	 99.472904  
498.000000	 99.506783  
497.000000	 99.545168  
496.000000	 99.594950  
495.000000	 99.640345  
494.000000	 99.679064  
493.000000	 99.721646  
492.000000	 99.764823  
491.000000	 99.798750  
490.000000	 99.830341  
489.000000	 99.871873  
488.000000	 99.920248  
487.000000	 99.967432  
486.000000	 100.017356 
485.000000	 100.075745 
484.000000	 100.135231 
483.000000	 100.183105 
482.000000	 100.215530 
481.000000	 100.237941 
480.000000	 100.259041 
479.000000	 100.288510 
478.000000	 100.331091 
477.000000	 100.381302 
476.000000	 100.428795 
475.000000	 100.470781 
474.000000	 100.510048 
473.000000	 100.545263 
472.000000	 100.570845 
471.000000	 100.588178 
470.000000	 100.610136 
469.000000	 100.650596 
468.000000	 100.710511 
467.000000	 100.776433 
466.000000	 100.834155 
465.000000	 100.879120 
464.000000	 100.910401 
463.000000	 100.924777 
462.000000	 100.926065 
461.000000	 100.931382 
460.000000	 100.955009 
459.000000	 100.992798 
458.000000	 101.034951 
457.000000	 101.078677 
456.000000	 101.120162 
455.000000	 101.150894 
454.000000	 101.175117 
453.000000	 101.209425 
452.000000	 101.253867 
451.000000	 101.289248 
450.000000	 101.309823 
449.000000	 101.327419 
448.000000	 101.341056 
447.000000	 101.341247 
446.000000	 101.341414 
445.000000	 101.358413 
444.000000	 101.371097 
443.000000	 101.352763 
442.000000	 101.328134 
441.000000	 101.334524 
440.000000	 101.349973 
439.000000	 101.334190 
438.000000	 101.307559 
437.000000	 101.314616 
436.000000	 101.347899 
435.000000	 101.373696 
434.000000	 101.392889 
433.000000	 101.419568 
432.000000	 101.450014 
431.000000	 101.484322 
430.000000	 101.551151 
429.000000	 101.669621 
428.000000	 101.794028 
427.000000	 101.835584 
426.000000	 101.768326 
425.000000	 101.688313 
424.000000	 101.707863 
423.000000	 101.808691 
422.000000	 101.885843 
421.000000	 101.934099 
420.000000	 102.082157 
419.000000	 102.404236 
418.000000	 102.763748 
417.000000	 102.918291 
416.000000	 102.787041 
415.000000	 102.550196 
414.000000	 102.436590 
413.000000	 102.468609 
412.000000	 102.503824 
411.000000	 102.457618 
410.000000	 102.373647 
409.000000	 102.315044 
408.000000	 102.296757 
407.000000	 102.307510 
406.000000	 102.350449 
405.000000	 102.423596 
404.000000	 102.464365 
403.000000	 102.399826 
402.000000	 102.284574 
401.000000	 102.221751 
400.000000	 102.119588 

